2025
2174
2254
2267
2225
2107
1905
1680
1484
1338
1244
1230
1266
1408
1592
1786
1965
2076
2175
2235
2225
2169
2031
1849
1639
1468
1309
1237
1244
1326
1454
1642
1836
1998
2159
2256
2275
2250
2151
1959
1776
1555
1374
1254
1200
1264
1371
1495
1712
1913
2074
2187
2269
2279
2224
2085
1893
1679
1486
1333
1248
1218
1296
1408
1593
1772
1968
2143
2223
2307
2251
2192
2015
1781
1601
1445
1282
1202
1201
1277
1452
1649
1778
2031
2160
2331
2347
2176
2097
1919
1724
1485
1378
1317
1306
1272
1373
1506
1779
1897
2078
2208
2239
2251
2181
2094
1893
1678
1472
1346
1219
1189
1286
1470
1738
1953
1973
2047
2128
2199
2215
2161
2019
1835
1623
1453
1325
1269
1248
1339
1472
1641
1841
1994
2143
2247
2262
2238
2123
1949
1752
1552
1380
1293
1248
1290
1385
1522
1711
1874
2047
2177
2254
2251
2179
2071
1877
1682
1488
1369
1276
1234
1326
1442
1584
1787
1922
2103
2224
2249
2230
2157
1991
1808
1627
1451
1328
1226
1239
1360
1531
1669
1833
1985
2141
2235
2266
2203
2158
1957
1728
1530
1338
1230
1213
1265
1360
1533
1706
1886
2091
2206
2279
2283
2207
2075
1900
1712
1506
1360
1216
1177
1280
1380
1591
1857
1967
2143
2224
2274
2203
2143
2010
1872
1712
1428
1204
1104
1166
1252
1472
1693
1893
2055
2191
2278
2317
2276
2153
1951
1718
1507
1346
1227
1203
1278
1376
1522
1686
1938
2157
2211
2290
2327
2254
2097
1858
1621
1424
1252
1088
1161
1265
1393
1599
1819
2000
2166
2299
2335
2288
2185
2001
1770
1553
1364
1248
1184
1253
1317
1481
1680
1877
2079
2224
2320
2320
2261
2090
1897
1680
1472
1318
1205
1181
1255
1382
1526
1763
1937
2146
2271
2323
2303
2267
2064
1842
1595
1396
1254
1197
1170
1280
1450
1628
1829
2005
2203
2325
2391
2271
2151
1968
1731
1495
1353
1230
1257
1286
1347
1416
1610
1814
2055
2259
2355
2379
2349
2119
1861
1668
1456
1288
1178
1132
1246
1408
1584
1774
1935
2128
2275
2359
2331
2225
2027
1857
1584
1382
1248
1173
1200
1305
1450
1657
1840
2031
2209
2310
2339
2293
2131
1947
1716
1511
1329
1226
1194
1248
1349
1499
1706
1903
2117
2247
2323
2331
2243
2099
1874
1659
1459
1328
1224
1180
1266
1360
1535
1754
1926
2142
2299
2335
2319
2203
1995
1802
1578
1392
1285
1200
1213
1323
1440
1641
1855
2025
2221
2325
2331
2254
2135
1927
1697
1484
1314
1217
1178
1246
1354
1502
1705
1919
2131
2303
2368
2314
2214
2026
1719
1535
1452
1338
1264
1296
1290
1417
1591
1799
1974
2157
2289
2363
2319
2223
1999
1743
1508
1346
1220
1184
1200
1304
1467
1665
1855
2039
2223
2311
2327
2271
2137
1924
1717
1504
1354
1230
1203
1286
1363
1521
1707
1915
2103
2259
2341
2309
2228
2062
1834
1630
1416
1298
1217
1217
1312
1424
1584
1786
1950
2161
2279
2320
2282
2179
2003
1793
1558
1370
1270
1200
1252
1328
1469
1638
1852
2039
2221
2311
2314
2255
2117
1927
1697
1486
1360
1254
1200
1264
1369
1515
1717
1902
2099
2247
2310
2317
2225
2074
1847
1634
1415
1296
1217
1216
1289
1421
1594
1782
1968
2165
2291
2357
2286
2123
1993
1742
1534
1378
1290
1226
1237
1331
1472
1651
1863
2023
2211
2293
2311
2251
2112
1910
1699
1487
1332
1250
1220
1266
1381
1535
1743
1923
2095
2247
2320
2297
2231
2067
1839
1613
1403
1302
1214
1216
1302
1424
1607
1802
1982
2187
2295
2323
2261
2151
1959
1715
1533
1392
1344
1283
1300
1364
1463
1644
1828
1999
2160
2231
2258
2230
2111
1909
1710
1513
1360
1277
1239
1324
1381
1522
1722
1923
2111
2259
2303
2288
2207
2064
1840
1611
1438
1308
1222
1213
1306
1433
1606
1795
1979
2183
2283
2327
2269
2150
1967
1741
1535
1365
1273
1234
1264
1347
1488
1666
1854
2032
2211
2307
2307
2243
2101
1888
1660
1461
1337
1252
1218
1296
1386
1552
1743
1935
2107
2255
2303
2293
2199
2031
1808
1602
1424
1309
1236
1235
1316
1440
1618
1802
1973
2163
2289
2310
2230
2101
1922
1737
1594
1488
1294
1211
1232
1346
1489
1659
1871
2064
2205
2297
2299
2231
2096
1892
1665
1474
1328
1232
1216
1283
1406
1561
1723
1915
2118
2268
2327
2267
2183
2032
1811
1613
1406
1313
1233
1235
1328
1456
1630
1815
1978
2163
2301
2319
2271
2160
1941
1735
1520
1363
1271
1232
1264
1370
1490
1680
1872
2065
2209
2298
2299
2222
2086
1869
1654
1464
1348
1250
1225
1296
1383
1552
1739
1931
2135
2253
2303
2273
2190
2007
1807
1584
1408
1310
1217
1245
1344
1456
1623
1811
1999
2166
2278
2321
2267
2143
1927
1728
1515
1377
1264
1233
1280
1373
1492
1690
1903
2067
2203
2306
2256
2252
2092
1872
1633
1472
1392
1280
1232
1275
1380
1552
1809
1893
2095
2243
2303
2289
2182
2032
1797
1589
1412
1307
1255
1254
1360
1472
1633
1813
2000
2174
2291
2314
2256
2130
1919
1714
1525
1388
1269
1228
1280
1365
1506
1670
1853
2026
2223
2291
2290
2162
2091
1870
1648
1462
1330
1253
1221
1302
1414
1581
1760
1931
2132
2259
2367
2283
2182
2016
1794
1595
1398
1305
1230
1254
1330
1456
1632
1823
1993
2191
2291
2307
2234
2129
1931
1708
1495
1346
1274
1232
1285
1375
1504
1703
1887
2091
2219
2293
2291
2221
2083
1868
1639
1456
1330
1232
1226
1267
1408
1570
1776
1963
2148
2285
2322
2287
2171
2000
1795
1585
1385
1295
1246
1274
1341
1472
1655
1845
2010
2197
2257
2279
2224
2123
1930
1754
1506
1348
1271
1230
1285
1392
1524
1715
1875
2081
2242
2307
2290
2211
2062
1862
1643
1441
1322
1257
1236
1315
1438
1589
1776
1952
2132
2259
2303
2259
2167
1999
1783
1575
1396
1253
1242
1263
1349
1475
1638
1822
2005
2172
2291
2289
2231
2098
1904
1695
1506
1374
1280
1235
1267
1385
1511
1697
1901
2071
2231
2309
2288
2193
2042
1822
1626
1443
1346
1265
1254
1326
1440
1580
1761
1954
2137
2281
2310
2271
2170
1999
1767
1566
1387
1298
1202
1245
1346
1477
1648
1845
2007
2192
2277
2305
2240
2117
1904
1701
1497
1360
1280
1239
1290
1376
1535
1728
1911
2081
2246
2288
2288
2199
2059
1837
1638
1438
1296
1248
1235
1324
1434
1593
1789
1951
2142
2259
2315
2251
2155
1984
1767
1535
1394
1284
1273
1259
1359
1485
1659
1857
2015
2192
2286
2299
2239
2103
1905
1692
1451
1370
1253
1224
1263
1398
1535
1729
1906
2074
2224
2309
2283
2205
2063
1820
1613
1448
1324
1265
1250
1326
1456
1586
1783
1948
2149
2259
2333
2247
2167
1991
1757
1572
1418
1296
1249
1243
1328
1472
1658
1851
2009
2211
2303
2303
2245
2107
1905
1697
1501
1362
1265
1230
1280
1355
1552
1733
1914
2098
2235
2299
2268
2192
2034
1829
1613
1440
1318
1250
1252
1329
1445
1606
1778
1957
2133
2273
2294
2250
2143
1967
1759
1552
1397
1290
1263
1275
1370
1508
1667
1857
2017
2183
2261
2285
2222
2097
1887
1712
1489
1358
1268
1251
1310
1392
1552
1718
1905
2095
2240
2287
2259
2174
2047
1814
1611
1438
1332
1275
1262
1366
1452
1600
1808
1971
2155
2259
2293
2253
2145
1950
1744
1529
1378
1300
1260
1276
1380
1507
1684
1865
2037
2191
2287
2298
2221
2070
1847
1670
1489
1354
1268
1245
1358
1412
1567
1733
1907
2087
2222
2287
2262
2199
2019
1808
1610
1429
1338
1253
1261
1341
1460
1618
1805
1965
2160
2270
2299
2231
2139
1991
1741
1535
1390
1280
1238
1271
1373
1517
1680
1856
2045
2179
2281
2291
2213
2094
1884
1648
1459
1351
1266
1235
1306
1423
1570
1741
1915
2097
2242
2301
2259
2171
2014
1797
1601
1424
1314
1260
1270
1345
1467
1631
1808
1963
2155
2263
2293
2241
2137
1906
1723
1535
1398
1284
1246
1280
1381
1493
1681
1790
2043
2224
2294
2285
2226
2094
1885
1655
1467
1360
1264
1248
1296
1418
1559
1749
1921
2111
2245
2310
2283
2171
1979
1791
1603
1418
1296
1248
1260
1337
1467
1629
1803
2047
2159
2270
2298
2251
2135
1931
1744
1525
1381
1287
1237
1293
1381
1517
1700
1883
2047
2215
2257
2270
2199
2058
1850
1642
1479
1360
1270
1263
1334
1440
1581
1758
1936
2112
2241
2257
2239
2160
1989
1790
1571
1408
1312
1264
1268
1362
1481
1661
1829
1984
2214
2249
2223
2199
2097
1905
1699
1520
1377
1289
1266
1314
1426
1567
1728
1879
2057
2195
2261
2241
2165
2043
1818
1616
1442
1351
1280
1280
1371
1475
1614
1787
1943
2130
2243
2245
2207
2103
1952
1744
1569
1405
1327
1285
1314
1415
1535
1686
1861
1999
2167
2234
2239
2171
2044
1871
1723
1513
1392
1305
1296
1333
1453
1619
1761
1922
2063
2188
2227
2197
2128
1993
1797
1614
1456
1372
1296
1312
1379
1488
1650
1823
1955
2099
2199
2231
2178
2083
1927
1735
1578
1434
1358
1292
1333
1435
1565
1739
1869
1999
2140
2219
2223
2139
2014
1856
1681
1494
1395
1322
1314
1371
1485
1599
1717
1943
2081
2193
2220
2189
2090
1958
1771
1597
1456
1379
1324
1347
1414
1524
1664
1823
1953
2107
2145
2192
2142
2034
1901
1706
1535
1420
1354
1331
1387
1472
1584
1716
1858
2003
2128
2198
2186
2119
1984
1808
1635
1501
1407
1348
1359
1422
1535
1647
1771
1930
2055
2150
2194
2145
2071
1942
1767
1600
1470
1398
1346
1377
1456
1568
1684
1837
1963
2099
2167
2183
2128
2003
1855
1696
1552
1442
1377
1350
1395
1501
1610
1744
1867
1984
2118
2189
2167
2097
1959
1808
1648
1496
1425
1362
1382
1426
1527
1649
1791
1926
2061
2157
2165
2139
2055
1901
1740
1582
1456
1403
1362
1386
1469
1573
1695
1858
1968
2103
2165
2169
2103
1999
1851
1685
1534
1431
1379
1367
1411
1515
1616
1754
1875
2017
2126
2163
2138
2075
1955
1800
1635
1490
1408
1376
1390
1427
1534
1672
1810
1924
2061
2147
2167
2126
2031
1903
1740
1588
1437
1396
1376
1414
1469
1590
1705
1817
1963
2100
2163
2156
2091
1977
1840
1683
1535
1432
1393
1387
1424
1500
1638
1757
1902
2015
2117
2160
2140
2063
1953
1771
1639
1498
1424
1382
1362
1479
1555
1654
1810
2010
2055
2146
2151
2121
2025
1893
1726
1580
1477
1425
1408
1429
1492
1582
1723
1838
1961
2065
2145
2155
2071
1999
1823
1675
1520
1445
1390
1408
1433
1531
1632
1773
1890
2018
2128
2174
2130
2047
1917
1777
1621
1506
1441
1372
1393
1448
1563
1663
1808
1931
2055
2130
2162
2109
2018
1883
1722
1581
1437
1422
1375
1408
1506
1597
1729
1863
1962
2093
2139
2147
2093
1983
1832
1678
1533
1430
1392
1386
1439
1535
1623
1763
1904
2018
2130
2161
2125
2045
1936
1751
1622
1491
1429
1392
1401
1485
1589
1682
1809
1947
2070
2139
2127
2095
2005
1865
1691
1552
1451
1409
1392
1429
1514
1622
1742
1871
1985
2109
2151
2128
2062
1955
1810
1655
1515
1440
1405
1398
1453
1528
1645
1777
1904
2013
2111
2149
2115
2032
1920
1773
1619
1510
1430
1392
1403
1486
1568
1693
1742
1935
2055
2131
2149
2095
2007
1867
1712
1558
1442
1408
1392
1435
1503
1615
1741
1863
1978
2094
2138
2131
2071
1962
1833
1655
1521
1476
1409
1401
1465
1559
1660
1776
1907
2032
2115
2142
2095
2035
1906
1744
1616
1480
1424
1390
1408
1493
1600
1699
1825
1943
2062
2128
2145
2095
1999
1865
1705
1556
1457
1422
1397
1424
1522
1614
1728
1855
1983
2095
2141
2119
2060
1957
1811
1669
1535
1439
1402
1403
1471
1552
1664
1791
1899
2019
2112
2137
2115
2023
1911
1755
1605
1488
1442
1403
1418
1507
1597
1726
1817
1950
2037
2133
2139
2080
1982
1845
1705
1565
1472
1418
1417
1441
1520
1631
1745
1869
1969
2102
2131
2122
2033
1947
1805
1648
1518
1456
1406
1408
1474
1558
1661
1792
1907
1998
2081
2150
2080
2000
1904
1744
1606
1495
1434
1396
1396
1507
1599
1709
1839
1945
2070
2129
2074
2047
1968
1850
1743
1553
1457
1419
1415
1456
1524
1584
1761
1882
1980
2095
2138
2111
2031
1934
1798
1651
1523
1456
1408
1408
1486
1566
1655
1783
1925
2038
2101
2151
2096
2009
1881
1726
1603
1488
1431
1408
1434
1510
1613
1712
1830
1939
2069
2121
2126
2061
1983
1835
1695
1568
1456
1434
1422
1446
1535
1635
1757
1877
1968
2089
2121
2109
2041
1929
1787
1643
1532
1454
1419
1409
1493
1568
1677
1792
1909
2023
2128
2135
2089
2001
1893
1722
1600
1484
1437
1410
1441
1520
1600
1711
1851
1955
2064
2122
2127
2069
1967
1840
1687
1562
1456
1419
1406
1453
1535
1641
1765
1880
1986
2089
2117
2115
2055
1938
1782
1648
1521
1448
1408
1411
1474
1584
1716
1794
1931
2023
2123
2133
2079
2003
1871
1731
1600
1456
1418
1396
1435
1518
1616
1725
1851
1962
2071
2128
2126
2064
1955
1823
1684
1535
1451
1424
1412
1457
1535
1649
1760
1886
2000
2083
2135
2101
2023
1914
1785
1632
1525
1456
1413
1410
1490
1580
1679
1799
1913
2039
2107
2127
2083
1989
1871
1713
1585
1491
1441
1411
1436
1522
1617
1739
1856
1966
2064
2128
2106
2029
1953
1818
1665
1559
1456
1424
1431
1463
1535
1651
1791
1905
2015
2111
2121
2097
2010
1900
1734
1614
1574
1456
1428
1427
1505
1605
1686
1810
1926
2018
2103
2114
2075
1983
1856
1710
1587
1489
1433
1415
1454
1535
1611
1744
1871
1954
2065
2118
2113
2043
1951
1824
1680
1556
1468
1427
1437
1467
1535
1661
1761
1887
1995
2101
2119
2098
2030
1909
1773
1615
1494
1450
1404
1417
1504
1584
1706
1817
1931
2039
2113
2115
2074
1983
1871
1712
1584
1472
1453
1416
1445
1526
1605
1741
1871
1965
2071
2119
2121
2015
1963
1794
1655
1532
1461
1421
1408
1472
1568
1651
1776
1904
2005
2103
2113
2087
2011
1911
1749
1614
1520
1449
1403
1450
1488
1595
1699
1808
1930
2035
2127
2115
2063
1999
1867
1711
1578
1476
1437
1419
1443
1529
1629
1731
1873
1968
2064
2113
2096
2032
1935
1808
1664
1535
1449
1424
1425
1474
1568
1669
1783
1902
1967
2091
2109
2095
2009
1910
1762
1620
1491
1453
1417
1448
1506
1595
1709
1823
1921
2025
2112
2113
2061
1966
1856
1701
1557
1478
1444
1424
1463
1535
1636
1739
1869
1968
2061
2095
2093
2035
1936
1791
1651
1535
1468
1426
1419
1488
1578
1661
1792
1925
1998
2089
2128
2110
2013
1904
1739
1602
1488
1449
1414
1421
1514
1607
1712
1835
1930
2030
2099
2093
2047
1971
1854
1715
1574
1474
1441
1434
1470
1552
1646
1750
1871
1968
2073
2107
2101
2019
1917
1776
1661
1528
1464
1424
1440
1488
1584
1615
1790
1905
1989
2080
2105
2077
1996
1899
1734
1613
1552
1456
1428
1437
1504
1604
1707
1813
1950
2047
2117
2096
2033
1955
1840
1711
1589
1488
1440
1436
1466
1532
1620
1726
1879
1983
2126
2112
2086
2022
1922
1776
1648
1531
1459
1435
1430
1478
1579
1672
1794
1899
2006
2096
2112
2064
2000
1885
1744
1609
1505
1461
1424
1441
1525
1619
1716
1835
1936
2041
2097
2100
2042
1966
1835
1677
1578
1472
1442
1434
1462
1552
1648
1767
1881
1978
2075
2111
2095
2015
1915
1792
1643
1526
1478
1422
1441
1488
1600
1684
1791
1904
2005
2082
2109
2066
1990
1879
1731
1600
1494
1452
1440
1472
1535
1610
1738
1834
1943
2030
2098
2105
2047
1955
1833
1696
1560
1459
1431
1424
1474
1556
1649
1760
1889
1981
2079
2115
2097
2007
1922
1776
1630
1521
1424
1424
1430
1488
1581
1678
1798
1906
2003
2093
2103
2055
1982
1867
1723
1601
1493
1454
1433
1446
1520
1626
1723
1845
1937
2046
2119
2095
2043
1946
1803
1666
1552
1457
1454
1437
1488
1579
1648
1759
1870
1971
2065
2101
2090
2019
1885
1791
1642
1529
1457
1431
1445
1507
1593
1669
1749
1911
2019
2086
2113
2064
1984
1869
1715
1600
1504
1442
1442
1456
1525
1634
1729
1844
1942
2047
2099
2093
2043
1955
1811
1683
1568
1484
1441
1434
1488
1552
1648
1744
1883
2003
2077
2105
2075
2002
1904
1770
1649
1523
1465
1443
1449
1506
1593
1685
1775
1904
2011
2096
2110
2064
1985
1869
1713
1600
1503
1446
1424
1452
1527
1632
1734
1845
1946
2059
2113
2098
2018
1936
1833
1680
1560
1482
1437
1435
1483
1567
1666
1778
1873
1984
2087
2119
2091
2006
1901
1744
1631
1520
1477
1434
1457
1497
1602
1686
1812
1903
2005
2091
2099
2064
1991
1867
1720
1589
1490
1450
1434
1440
1515
1616
1732
1866
1955
2064
2119
2097
2033
1931
1819
1668
1555
1467
1435
1456
1473
1569
1676
1776
1895
1990
2074
2105
2091
1991
1904
1746
1622
1510
1456
1437
1443
1506
1605
1679
1811
1911
2018
2099
2109
2042
1967
1855
1722
1584
1491
1453
1433
1462
1535
1632
1743
1862
1949
2062
2117
2096
2032
1930
1802
1665
1535
1445
1429
1442
1483
1584
1675
1785
1889
1987
2083
2105
2070
1989
1891
1760
1625
1517
1467
1437
1446
1507
1602
1713
1836
1927
2015
2103
2079
2045
1967
1846
1711
1582
1488
1467
1430
1456
1535
1643
1766
1863
1947
2065
2102
2103
2021
1921
1795
1659
1535
1470
1445
1446
1491
1571
1649
1776
1894
1997
2079
2102
2068
2003
1894
1762
1616
1520
1459
1425
1464
1520
1606
1701
1826
1922
2018
2086
2093
2014
1974
1855
1708
1588
1502
1456
1426
1475
1553
1642
1746
1841
1926
2038
2105
2096
2027
1930
1762
1668
1554
1484
1452
1444
1498
1577
1680
1776
1889
1994
2079
2089
2067
1991
1886
1765
1612
1507
1456
1437
1463
1526
1623
1715
1833
1923
2029
2090
2095
2041
1968
1840
1703
1584
1488
1458
1438
1475
1553
1650
1745
1863
1934
2035
2095
2085
2026
1982
1809
1650
1558
1472
1449
1443
1502
1573
1671
1790
1904
2000
2069
2110
2079
1987
1898
1744
1638
1510
1472
1433
1457
1518
1614
1715
1827
1943
2039
2087
2099
2045
1959
1841
1701
1586
1488
1452
1439
1472
1565
1654
1750
1879
1950
2035
2086
2066
2011
1921
1802
1678
1559
1484
1442
1443
1492
1571
1665
1776
1884
1986
2066
2096
2059
1982
1888
1732
1627
1520
1456
1447
1467
1535
1616
1707
1840
1935
2047
2107
2099
2034
1953
1840
1696
1582
1480
1437
1424
1461
1557
1648
1765
1871
1974
2070
2097
2087
2015
1920
1771
1645
1535
1482
1437
1429
1492
1583
1680
1792
1909
2000
2100
2103
2071
1968
1876
1726
1614
1504
1458
1437
1449
1535
1584
1727
1846
1946
2028
2096
2095
2064
1987
1837
1731
1565
1466
1440
1445
1521
1585
1655
1755
1863
1956
2061
2091
2058
1995
1902
1782
1650
1527
1444
1424
1428
1488
1580
1680
1792
1923
2025
2113
2131
2097
2027
1895
1741
1590
1488
1452
1424
1442
1482
1584
1691
1844
1955
2058
2147
2135
2086
1969
1840
1702
1578
1464
1414
1433
1424
1454
1606
1733
1862
1979
2094
2142
2133
2065
1954
1813
1650
1529
1451
1394
1412
1489
1554
1664
1831
1953
2063
2086
2096
2079
2000
1840
1759
1642
1499
1456
1409
1405
1474
1616
1729
1861
1967
2064
2118
2160
2091
1990
1841
1671
1523
1408
1365
1351
1470
1525
1635
1757
1943
2066
2166
2207
2178
2095
1946
1790
1616
1467
1356
1305
1348
1430
1535
1669
1811
1941
2061
2149
2154
2113
2058
1872
1675
1521
1425
1371
1322
1399
1552
1697
1814
1986
2047
2144
2181
2145
1986
1851
1683
1605
1494
1378
1301
1292
1432
1584
1726
1799
1910
2095
2211
2341
2293
2134
1911
1712
1518
1392
1321
1282
1322
1425
1575
1728
1904
2047
2175
2239
2245
2167
2025
1855
1635
1483
1351
1296
1232
1297
1445
1597
1753
1970
2111
2227
2285
2223
2064
1935
1775
1593
1425
1325
1268
1296
1385
1508
1674
1873
2061
2167
2279
2299
2223
2077
1876
1680
1486
1360
1290
1248
1274
1410
1575
1776
1949
2070
2154
2253
2320
2189
2029
1824
1605
1408
1283
1232
1244
1330
1498
1684
1851
2000
2150
2234
2278
2238
2122
1931
1755
1509
1362
1280
1282
1291
1356
1535
1716
1927
2075
2159
2267
2273
2186
2027
1863
1670
1483
1367
1231
1254
1322
1460
1592
1757
1939
2047
2158
2275
2210
2139
1971
1803
1596
1408
1280
1248
1283
1408
1655
1712
1808
1963
2106
2231
2307
2293
2179
2001
1744
1456
1274
1216
1221
1249
1328
1498
1690
1901
2063
2191
2315
2335
2269
2103
1861
1652
1434
1319
1275
1248
1314
1456
1626
1795
1968
2139
2217
2257
2288
2173
2057
1849
1535
1328
1203
1232
1282
1430
1517
1710
1841
1983
2118
2239
2211
2169
2061
1903
1702
1483
1328
1270
1310
1333
1410
1552
1697
1853
2032
2159
2231
2223
2176
2119
2000
1728
1469
1362
1329
1342
1376
1418
1584
1702
1965
2177
2210
2279
2274
2129
1955
1749
1482
1319
1258
1291
1345
1424
1468
1661
1826
1968
2101
2277
2325
2291
2177
2047
1808
1456
1228
1174
1156
1208
1328
1499
1691
1920
2077
2175
2271
2273
2245
2133
1936
1771
1493
1321
1288
1330
1320
1502
1714
1791
1890
2026
2155
2147
2129
2091
2007
1802
1720
1520
1335
1144
1088
1251
1489
1675
1883
1906
2118
2171
2291
2391
2235
1889
1709
1606
1558
1483
1260
1186
1232
1424
1627
1832
2079
2175
2343
2467
2375
1979
1808
1621
1440
1258
1110
1165
1342
1656
1627
1998
2167
2198
2277
2256
2174
2153
2047
1631
1260
1046
1130
1309
1280
1595
1578
1708
2027
1984
1936
2174
2311
2335
2177
1978
1765
1583
1251
1090
1169
1356
1478
1648
1869
2061
1822
1939
2193
2350
2333
2307
2119
1951
1710
1434
1006
866
930
1011
1235
1827
2224
2270
2503
2454
2274
1983
1791
1728
1360
1345
1283
996
976
1264
1951
2079
2365
2357
2219
2179
2267
2047
1798
1747
1663
1369
1409
1217
1245
1581
1305
1412
1810
1623
1888
2160
2480
2707
2471
2057
1731
1535
1381
1276
1301
1293
1347
1613
1709
1958
1967
2166
1973
2093
2003
2060
2066
1935
1585
1341
1016
1368
1392
1371
1269
1573
1610
1759
2253
2559
2646
2482
2002
2061
1742
1314
1147
1184
1184
1189
1459
1743
1941
2027
2099
2213
2207
2155
2319
1935
1680
1644
1648
1461
1152
1312
1337
1649
1811
1823
1998
2000
1936
2171
2497
2655
2160
1450
1220
1152
960
1009
1212
1296
1498
1636
1803
2011
2303
2399
2325
2309
2139
1954
1792
1741
1454
947
621
1066
1577
1920
2543
2559
2423
2079
1712
1984
1845
1830
1919
1677
1392
1232
1264
1328
1415
1344
1600
1963
1981
2174
2199
2291
2341
2230
2039
1686
1320
1088
1046
1166
1188
1501
1689
1778
2042
2237
2343
2415
2059
2043
1974
2057
1948
1332
1199
1208
1251
1377
1440
1786
2073
2075
1846
2087
1937
2086
2274
2230
1931
1600
1362
1121
1120
1115
1200
1408
1596
1911
2071
2205
2193
2102
2253
2221
2143
2128
1635
1008
938
1247
1642
1921
1738
1491
1779
1872
1971
2117
2293
2178
2074
1962
1763
1523
1393
1267
1158
1440
1685
1825
1674
1464
1871
2231
2382
2125
1808
1671
1710
1496
1579
1598
1392
1572
1511
1535
1561
1585
1811
2287
2497
2235
2289
2162
1975
1838
1613
1381
1312
1270
1174
1296
1198
1424
1732
2243
2851
2640
2557
2338
1856
1738
1501
1123
1133
1270
1264
1194
1380
1473
1775
2117
2482
2751
3007
2421
1535
1184
1084
1233
1421
1282
1366
1443
1620
1664
1683
1774
2055
2194
2335
2249
1943
2001
2064
2022
1718
1593
1376
1222
1330
1520
1616
1760
1616
1776
2055
2195
2299
2224
1952
1761
1451
1616
1611
1236
1011
1028
1222
1642
1978
2059
2032
2221
2559
2902
2626
1853
1505
1181
1104
1360
1196
1229
1361
1584
1740
2066
2185
2065
2367
2342
2197
2277
1935
1737
1556
1412
1392
1207
908
1108
1264
1531
1858
1796
2203
2383
2559
2143
2121
2019
1669
1493
1271
1203
1273
1535
1722
1638
1648
1835
2033
2066
2162
2059
1998
2025
2128
1714
1392
1168
1109
1211
1533
1641
1872
1729
1779
2319
2447
2017
2057
2222
2203
1872
1584
1118
1115
1306
1348
1448
1610
1904
2095
2103
2158
2197
2326
2075
1914
1764
1629
1479
1445
1238
1161
1012
1193
1673
1788
2044
2258
2275
2365
2267
2059
1963
1808
1479
1034
960
1256
1580
1852
1594
1792
2023
1818
1893
2343
2715
2395
2087
1824
1562
1510
1243
1221
966
1072
1213
1827
2256
2198
1941
1995
2192
2192
2151
1962
1861
1796
1580
1216
1168
1002
1294
1696
1665
1672
2123
2339
2309
2047
1991
1997
1918
1834
1591
1438
1302
1321
1248
1306
1586
1703
1985
2307
2342
2170
1961
2107
2089
1911
1747
1661
1408
944
954
1170
1380
1584
1838
1935
2327
2427
2501
2331
1936
1949
2015
1827
1386
1077
852
1162
1280
1670
1742
1617
2082
2347
2210
2369
2192
2018
1673
1847
1650
1360
1333
1363
1392
1307
1521
1867
1946
1985
2023
2103
2233
2279
2112
1796
1726
1593
1438
1424
1261
1074
1032
1344
1919
2255
2352
2418
2295
2195
2226
1998
1648
1354
1213
1277
1412
1567
1296
1565
1830
1619
1939
2204
2117
2135
2307
2256
1927
1812
1607
1468
1394
1513
1287
1372
1392
1566
1628
1792
1925
2267
2669
2267
1905
1675
1419
1296
1535
1817
1510
1535
1508
1535
1597
1887
1970
2018
2245
2369
2171
1882
1734
1344
1160
1312
1569
1610
1838
1457
1535
1757
1830
2023
1977
2615
2527
2150
1744
1306
1313
1466
1434
1298
1227
1308
1493
1971
2353
2155
1936
2097
2202
2043
2023
1915
1679
1411
1366
1411
1359
1363
1469
1616
1828
1951
1962
2131
2189
2111
2003
1702
1787
1474
1810
2067
1535
1216
1556
1394
1559
1775
1744
1869
2223
2319
2137
1833
1944
1927
1616
1502
1344
1154
1217
1502
1729
1906
1895
1776
2062
2241
2295
2007
1584
1682
1590
1472
1421
1440
1392
1386
1502
1679
1951
2028
2112
2064
2064
2143
2189
2061
1823
1593
1509
1483
1354
1360
1344
1574
1632
1750
1967
1951
2111
2291
2217
2233
2021
1726
1517
1388
1349
1312
1350
1355
1582
1787
1808
1904
2081
2242
2151
2239
2039
1767
1729
1616
1378
1315
1402
1233
1486
1625
1776
1958
2069
2267
2227
2164
2067
1857
1779
1662
1471
1378
1171
1273
1393
1600
1796
1856
1885
1999
2278
2371
2207
1968
1802
1592
1457
1465
1433
1345
1322
1502
1632
1739
1867
2059
2149
2223
2299
2112
1858
1707
1666
1514
1535
1484
1200
1230
1488
1642
1796
1968
2075
2161
2265
2256
2142
1906
1763
1587
1438
1358
1304
1305
1318
1454
1658
1865
2087
2308
2192
2207
2139
2032
1888
1753
1526
1386
1328
1288
1305
1418
1594
1705
1868
2032
2162
2192
2238
2151
2033
1876
1697
1494
1359
1319
1301
1349
1484
1642
1782
1939
2096
2203
2243
2231
2107
1926
1798
1593
1419
1318
1266
1286
1378
1509
1653
1813
1978
2036
2171
2193
2179
2066
1891
1776
1558
1405
1327
1214
1374
1425
1601
1761
1919
2063
2128
2207
2226
2171
2015
1872
1687
1490
1372
1298
1293
1473
1582
1661
1677
1779
1951
2087
2223
2219
2123
1963
1835
1616
1440
1377
1328
1340
1424
1529
1655
1795
1945
2055
2206
2257
2227
2074
1872
1744
1535
1408
1323
1310
1330
1440
1581
1726
1910
2032
2116
2221
2225
2161
2032
1873
1671
1488
1382
1334
1347
1380
1472
1584
1702
1905
2064
2149
2211
2195
2112
1973
1817
1616
1484
1360
1298
1296
1392
1529
1684
1845
2000
2113
2195
2239
2195
2070
1898
1725
1534
1382
1301
1296
1322
1424
1591
1744
1902
2064
2127
2211
2247
2259
2096
1895
1632
1334
1291
1294
1331
1394
1471
1582
1782
1918
2029
2096
2257
2325
2130
1995
1808
1599
1424
1316
1280
1298
1397
1535
1671
1831
1981
2111
2183
2231
2247
2109
1904
1743
1552
1413
1302
1296
1323
1424
1584
1734
1918
2059
2128
2199
2199
2143
2015
1867
1674
1476
1357
1297
1296
1344
1488
1628
1787
1955
2085
2162
2214
2187
2115
1971
1781
1610
1433
1335
1316
1302
1392
1535
1680
1837
1988
2097
2190
2215
2175
2063
1922
1747
1552
1399
1312
1291
1325
1440
1584
1739
1901
2039
2141
2193
2223
2149
2015
1866
1674
1505
1383
1307
1347
1429
1531
1630
1716
1837
2021
2135
2215
2256
2159
2026
1840
1636
1406
1296
1260
1264
1357
1557
1727
1879
2027
2128
2190
2199
2139
2035
1935
1750
1552
1410
1312
1281
1335
1468
1632
1756
1898
1936
2047
2207
2242
2174
2059
1830
1654
1517
1388
1286
1258
1352
1488
1632
1783
1958
2073
2165
2217
2203
2099
1974
1808
1623
1472
1382
1321
1300
1389
1535
1689
1836
2009
2105
2178
2211
2171
2033
1903
1720
1520
1400
1312
1300
1340
1449
1584
1734
1968
2082
2149
2213
2191
2106
1931
1850
1703
1552
1425
1357
1302
1344
1491
1632
1757
1943
2055
2138
2179
2167
2098
1968
1797
1600
1444
1361
1344
1360
1430
1552
1673
1786
1918
2043
2128
2189
2160
2069
1956
1782
1600
1456
1363
1332
1344
1413
1533
1602
1815
2032
2190
2290
2263
2096
2005
1861
1686
1498
1370
1319
1312
1367
1493
1636
1793
1941
2068
2143
2199
2191
2079
1963
1808
1584
1463
1351
1323
1322
1418
1561
1679
1850
1997
2074
2131
2197
2178
2087
1953
1771
1595
1433
1313
1310
1314
1420
1574
1718
1869
2032
2116
2187
2199
2128
2003
1857
1668
1518
1403
1344
1316
1367
1482
1648
1775
1939
2064
2163
2259
2215
2142
1979
1808
1622
1488
1361
1289
1222
1280
1482
1698
1866
1999
2063
2154
2219
2153
2062
1904
1744
1611
1461
1360
1322
1354
1394
1522
1729
1919
2087
2221
2206
2207
2147
2019
1863
1705
1521
1424
1304
1248
1309
1420
1632
1777
1936
2065
2161
2218
2243
2128
1936
1781
1552
1430
1361
1328
1354
1406
1525
1686
1845
2000
2083
2172
2193
2147
2043
1915
1759
1575
1437
1357
1322
1347
1446
1535
1693
1889
2082
2243
2291
2191
2131
1985
1807
1552
1449
1344
1296
1298
1392
1535
1681
1808
1939
1979
2073
2181
2193
2131
2076
1819
1611
1478
1387
1326
1296
1354
1514
1697
1851
1984
2087
2191
2215
2175
2032
1911
1758
1587
1456
1333
1307
1322
1410
1584
1725
1869
2000
2096
2173
2192
2135
2015
1886
1697
1533
1408
1358
1328
1312
1482
1623
1771
1920
2003
2093
2198
2173
2083
1971
1841
1650
1486
1393
1326
1339
1405
1534
1662
1825
1955
2079
2142
2183
2153
2047
1924
1776
1600
1447
1360
1334
1349
1447
1576
1712
1857
1995
2098
2165
2171
2032
2005
1863
1693
1520
1403
1354
1307
1370
1533
1719
1801
1889
1999
2106
2177
2183
2077
1936
1804
1661
1513
1424
1412
1386
1418
1488
1611
1786
1862
2047
2128
2171
2109
2019
1904
1773
1603
1473
1354
1333
1373
1468
1618
1739
1862
2064
2141
2145
2146
2139
1991
1851
1703
1534
1428
1361
1342
1401
1508
1631
1760
1897
2011
2117
2160
2143
2081
1968
1835
1658
1513
1418
1383
1376
1424
1531
1659
1799
1920
2029
2113
2151
2127
2037
1918
1776
1623
1499
1410
1381
1399
1461
1570
1685
1820
1950
2017
2086
2129
2133
2071
1868
1711
1597
1485
1427
1424
1462
1535
1618
1712
1821
1939
2054
2081
2063
2029
1970
1865
1728
1616
1501
1424
1399
1438
1520
1613
1730
1848
1951
2063
2128
2138
2064
1947
1791
1648
1520
1456
1406
1408
1468
1584
1690
1815
1935
2037
2111
2128
2095
2000
1883
1742
1584
1489
1409
1385
1412
1502
1605
1728
1860
1981
2085
2135
2113
2046
1963
1827
1677
1531
1447
1405
1396
1429
1523
1655
1777
1917
2015
2087
2135
2112
2028
1938
1789
1645
1514
1432
1340
1290
1414
1605
1728
1913
2003
2033
2138
2161
2122
1990
1872
1698
1563
1440
1389
1365
1415
1502
1603
1726
1871
2000
2122
2177
2163
2067
1957
1824
1625
1456
1376
1385
1398
1481
1535
1617
1776
1929
2039
2137
2157
2122
2062
1941
1806
1616
1475
1375
1370
1392
1469
1577
1710
1846
1968
2032
2117
2129
2065
1983
1873
1728
1594
1460
1408
1379
1408
1488
1606
1744
1872
1975
2071
2185
2189
2102
2011
1815
1641
1504
1393
1371
1360
1417
1557
1664
1808
1936
2035
2117
2143
2097
2031
1921
1765
1615
1510
1410
1381
1383
1456
1573
1713
1863
1982
2047
2127
2125
2085
1998
1891
1725
1574
1478
1434
1392
1421
1520
1609
1742
1855
1965
2081
2130
2114
2061
1959
1807
1669
1535
1435
1403
1385
1430
1531
1665
1798
1926
2013
2111
2160
2163
2059
1951
1774
1598
1424
1345
1287
1340
1502
1741
1819
1843
1985
2097
2160
2119
2096
1979
1869
1696
1530
1424
1387
1360
1385
1472
1600
1731
1898
2046
2161
2182
2128
2043
1937
1802
1647
1505
1416
1390
1379
1456
1571
1665
1794
1927
2023
2115
2141
2125
2027
1910
1765
1616
1488
1424
1365
1392
1461
1579
1693
1840
1967
2071
2133
2147
2107
2014
1877
1710
1555
1456
1393
1380
1443
1488
1632
1763
1920
1999
2089
2121
2119
2047
1931
1787
1637
1490
1418
1396
1389
1450
1552
1680
1799
1937
2021
2091
2123
2143
2130
1942
1722
1602
1470
1353
1332
1376
1472
1657
1791
1903
2039
2112
2178
2150
2026
1936
1807
1642
1490
1392
1361
1380
1417
1519
1668
1767
1899
2064
2173
2170
2142
2046
1927
1785
1617
1488
1389
1346
1360
1428
1575
1685
1809
1936
2075
2165
2194
2159
2062
1923
1744
1593
1452
1408
1369
1341
1414
1535
1724
1894
1870
1979
2074
2118
2155
2097
1867
1730
1562
1360
1306
1344
1422
1583
1743
1794
1936
2057
2153
2175
2118
2038
1922
1793
1652
1520
1418
1328
1342
1369
1451
1526
1680
1859
2047
2179
2251
2192
2089
1938
1764
1615
1464
1361
1333
1372
1535
1718
1767
1840
1937
1999
2087
2139
2103
2015
1821
1603
1493
1411
1433
1424
1394
1467
1644
1835
1983
2066
2163
2192
2175
2064
1945
1776
1597
1462
1394
1360
1333
1366
1490
1679
1853
1998
2090
2157
2147
2125
2019
1887
1718
1563
1419
1362
1312
1360
1488
1591
1750
1902
2031
2124
2173
2175
2074
2000
1853
1661
1486
1364
1344
1341
1422
1524
1701
1808
1998
2059
2097
2163
2127
2060
1953
1773
1610
1463
1369
1344
1360
1458
1586
1790
1858
1984
2103
2169
2161
2109
2005
1869
1680
1568
1399
1372
1360
1392
1552
1646
1776
1915
1998
2058
2159
2203
2135
1999
1783
1606
1455
1393
1262
1338
1408
1514
1689
1865
1958
1998
2122
2178
2157
2160
1936
1730
1572
1425
1312
1309
1344
1452
1599
1723
1899
2064
2157
2213
2158
2079
1910
1771
1650
1513
1424
1361
1330
1382
1493
1664
1792
2005
2103
2173
2160
2130
2043
1951
1806
1621
1434
1341
1351
1381
1473
1606
1734
1831
1956
2027
2105
2110
2063
1979
1879
1745
1600
1562
1467
1408
1370
1435
1535
1680
1872
2006
2095
2215
2238
2146
1971
1847
1623
1456
1344
1265
1248
1344
1470
1600
1759
1991
2041
2197
2283
2282
2199
2096
1899
1664
1465
1355
1299
1258
1284
1408
1457
1625
1829
2022
2208
2351
2347
2197
2017
1833
1622
1440
1329
1258
1270
1440
1616
1803
1975
2087
2073
2128
2086
2065
1968
1823
1604
1481
1403
1309
1318
1392
1445
1582
1755
1946
2046
2224
2294
2259
2143
1958
1684
1456
1344
1333
1395
1434
1684
1793
1759
1744
1905
2025
2224
2271
2159
2090
1827
1584
1413
1328
1298
1296
1353
1458
1678
1738
1882
2067
2195
2247
2114
2096
2027
1813
1522
1257
1200
1387
1511
1643
1734
1725
1710
1872
2020
2219
2167
2157
2101
1942
1744
1520
1344
1136
1064
1152
1275
1634
1874
2423
2615
2517
2345
1946
1892
1873
1763
1476
1388
1296
1206
1280
1341
1472
1719
1991
2330
2291
2355
2291
2139
1840
1731
1741
1404
960
880
1175
1491
1488
1697
1903
1968
2110
2323
2319
2259
1914
1788
1955
2060
1836
1664
1314
1286
1387
1522
1456
1552
1596
1653
1821
2114
2293
2221
2004
1702
1535
1703
1787
1723
1699
1446
1402
1535
1706
1883
2007
2123
2099
2284
2448
2146
1808
1260
1168
965
896
1069
1392
1712
2123
2245
2175
1962
2001
2085
1991
1854
1505
1296
1327
1273
1712
2274
2067
2146
1639
1138
1253
1596
1845
2083
2415
2494
2283
2022
1637
1653
1472
1215
1216
1397
1584
1668
1605
1719
1953
2113
2535
2094
1967
2177
1842
1853
1751
1457
1376
1261
1274
1370
1463
1601
1744
1709
1983
2395
2511
2406
1946
1658
1476
1325
1525
1534
1322
1380
1362
1519
1975
2235
2351
2354
1795
1942
1918
1947
2146
1776
1377
1217
1212
1190
1296
1607
1733
1914
2202
2190
2047
2037
2025
2035
1744
1653
1565
1617
1488
1426
1435
1298
1426
1808
1786
1961
2197
2403
2355
2206
1978
1652
1712
1829
1613
1354
1136
1216
1564
1622
1653
1776
1854
2000
2268
2448
2655
1821
1030
976
1010
1175
1726
1846
1863
1761
1933
1947
2082
2478
2669
2418
2176
1755
1443
1173
1202
1028
1108
1264
1423
1584
1717
1990
2114
2030
2047
2415
1895
1474
1516
1693
1938
2079
1633
1297
1446
1520
1695
1733
1853
1973
1929
1931
2180
2192
2277
2207
1691
1371
1198
1257
1229
1606
1648
1600
1535
1556
2123
2430
2655
2433
1898
1899
1762
1328
1160
956
1264
1476
1669
1787
1707
1651
1969
1973
2112
2375
2290
2055
1878
1825
1501
1409
1535
1209
1157
1422
1417
1488
1648
1914
2046
2261
2623
2637
2239
1722
1472
1373
1328
1331
1625
1921
1677
1678
1473
1712
1831
1937
2133
2046
1981
1973
2043
1793
1553
1438
1497
1404
1198
1463
1645
1813
2289
2243
2071
2089
2061
1822
1923
1973
1618
1349
1301
1370
1472
980
1364
1965
1872
1786
1899
1959
2379
2287
1661
1734
1835
1791
2091
1535
1426
1232
1200
1339
1494
1857
2258
2327
2498
2347
2067
1802
1658
1621
1648
1535
1393
1366
1685
1473
1566
1743
1689
2095
2100
2177
2076
1934
1520
1535
1727
1626
1554
1351
1012
1281
1683
1911
2064
2134
2111
2305
2791
2499
1936
1514
1230
1184
1427
1680
1491
1202
1434
1616
1441
1649
1970
2161
2193
2175
2097
2199
2073
1739
1440
1435
1535
1586
1469
1615
1444
1420
1749
2017
2207
2247
2011
2063
1983
1707
1584
1647
1296
1228
1456
1482
1595
1936
2017
2109
2039
2109
2057
2033
2064
1987
1696
1687
1494
1440
1443
1456
1494
1479
1653
1709
2135
2189
2070
1911
1829
1743
1675
1650
1840
1735
1088
1309
1456
1458
1689
1790
1986
2045
2044
2147
2103
2160
2095
1733
1624
1535
1283
1461
1509
1451
1418
1706
1939
2167
2143
2169
2097
2027
1950
1878
1834
1639
1435
1273
1136
1108
1312
1687
1953
1968
1961
2261
2295
2287
2099
1925
1728
1488
1364
1249
1269
1344
1604
1741
1817
1789
2083
1883
1890
2297
2377
2431
1997
1483
1392
1296
1160
1264
1454
1725
1831
1854
1690
1961
1758
1706
1908
2431
2443
2014
1741
1661
1493
1428
1317
1293
1456
1728
1907
1867
1827
1712
2111
2175
2267
2004
1594
1409
1264
1276
1450
1559
1659
1532
1577
1759
1933
2224
2455
2439
2307
1958
1675
1502
1390
1386
1296
1300
1632
1574
1698
2022
1899
2001
1920
1882
2032
2005
2037
1993
1741
1498
1366
1296
1280
1414
1568
1856
2122
2090
1933
2127
2094
2013
2010
1842
1702
1596
1425
1325
1360
1435
1474
1601
1647
1735
1878
2033
2155
2189
2143
2139
2045
1814
1491
1284
1211
1233
1216
1724
1808
2026
2221
2413
2235
1958
1834
1789
1469
1462
1694
1626
1758
1566
1572
1418
1393
1642
1867
1958
2121
2111
2058
2047
1958
1884
1751
1720
1457
1419
1445
1643
1690
1794
1403
1416
1806
1885
2186
2223
1993
1968
1951
1682
1472
1337
1296
1403
1557
1669
1712
1825
1983
2093
2106
2245
2269
2267
2030
1778
1602
1440
1237
1174
1188
1461
1842
1841
1789
1799
2039
2123
2154
2066
2000
1947
1767
1488
1438
1344
1373
1377
1353
1479
1693
1906
2087
2068
2231
2305
2293
2167
1951
1498
1350
1364
1340
1323
1333
1606
1735
1647
1761
1936
2080
2201
2227
2427
2253
1782
1518
1309
1181
1217
1184
1040
1365
1778
2082
2126
2207
2198
2250
2257
2128
1953
1727
1522
1313
1251
1322
1513
1392
1616
1739
1889
2133
2064
2128
2249
2097
2091
1972
1751
1568
1392
1324
1283
1358
1462
1618
1744
1904
2035
2111
2215
2160
2043
1945
1808
1627
1468
1392
1335
1334
1403
1521
1680
1804
1966
2102
2165
2119
2032
2011
1930
1903
1872
1483
1333
1285
1268
1373
1576
1751
1936
2064
2150
2183
2146
2150
2098
1855
1645
1529
1362
1279
1222
1296
1378
1535
1681
1920
2067
2130
2256
2223
2117
1997
1726
1616
1586
1440
1419
1366
1398
1498
1581
1652
1898
2139
2230
2291
2187
2038
1919
1777
1646
1400
1353
1376
1487
1533
1535
1649
1801
1955
2099
2103
2103
2077
1968
1841
1801
1616
1438
1346
1338
1377
1472
1571
1787
1931
2063
2139
2182
2211
2108
1970
1819
1638
1481
1378
1328
1317
1397
1525
1691
1823
1959
2070
2163
2187
2147
2030
1915
1834
1584
1392
1433
1371
1386
1437
1522
1678
1840
1986
2075
2147
2187
2149
2022
1883
1708
1535
1402
1337
1367
1409
1520
1644
1787
1938
2081
2154
2175
2087
2007
1871
1731
1614
1475
1362
1307
1323
1420
1572
1691
1828
1961
2034
2154
2219
2203
2096
1961
1797
1616
1442
1323
1325
1344
1441
1590
1722
1869
2000
2096
2194
2197
2122
2013
1841
1702
1535
1415
1349
1340
1360
1477
1607
1744
1878
2045
2135
2167
2175
2095
1969
1815
1648
1488
1376
1338
1341
1395
1616
1682
1831
1974
2070
2151
2181
2147
2064
1922
1776
1585
1444
1340
1344
1344
1426
1587
1713
1872
2007
2110
2175
2225
2141
2002
1870
1724
1530
1403
1334
1328
1392
1495
1629
1773
1930
2128
2151
2191
2185
2100
1965
1815
1618
1469
1367
1322
1307
1386
1527
1671
1803
1963
2087
2166
2206
2175
2074
1941
1770
1587
1447
1370
1333
1352
1454
1570
1713
1866
2000
2113
2174
2192
2129
1987
1861
1687
1516
1399
1347
1334
1371
1484
1631
1775
1935
2076
2131
2192
2160
2084
1954
1819
1649
1473
1360
1308
1342
1418
1535
1687
1835
1981
2079
2160
2182
2162
2066
1925
1766
1574
1431
1335
1300
1329
1440
1586
1712
1867
2002
2081
2170
2196
2134
1999
1872
1700
1633
1500
1415
1310
1246
1366
1567
1755
1930
2092
2144
2173
2155
2070
1951
1807
1645
1490
1397
1365
1359
1424
1558
1664
1808
1970
2063
2144
2163
2133
2043
1911
1770
1591
1430
1335
1342
1360
1457
1597
1723
1862
1986
2090
2161
2182
2148
2018
1873
1719
1535
1395
1326
1294
1334
1470
1630
1761
1929
2047
2147
2187
2161
2101
1965
1837
1650
1552
1386
1334
1349
1434
1518
1774
1849
1952
2027
2097
2085
2067
1970
1878
1744
1535
1467
1401
1360
1362
1472
1601
1728
1895
2033
2112
2182
2193
2134
1999
1846
1669
1510
1408
1338
1345
1385
1488
1621
1769
1936
2062
2128
2181
2167
2079
1953
1807
1616
1467
1349
1330
1344
1408
1558
1685
1831
1968
2087
2156
2181
2146
2045
1926
1765
1570
1421
1341
1337
1382
1431
1589
1717
1872
2023
2119
2146
2145
2096
1975
1877
1767
1599
1442
1346
1346
1351
1409
1564
1744
1951
2158
2241
2149
2081
2013
1909
1793
1627
1504
1418
1379
1323
1382
1520
1668
1786
1936
2046
2154
2215
2179
2071
1941
1776
1580
1456
1390
1420
1398
1424
1531
1698
1862
1982
2090
2167
2192
2143
2013
1890
1710
1526
1405
1354
1337
1390
1488
1630
1773
1913
2027
2117
2167
2187
2091
1954
1829
1660
1457
1340
1329
1307
1415
1565
1729
1845
1990
2097
2133
2161
2160
2066
1935
1765
1584
1430
1360
1316
1275
1389
1535
1680
1886
2019
2098
2195
2230
2176
2047
1899
1628
1443
1389
1374
1381
1456
1533
1584
1735
1924
2118
2192
2213
2170
2022
1883
1778
1588
1435
1341
1318
1358
1433
1605
1698
1808
1931
2073
2166
2192
2149
2064
1923
1759
1586
1488
1373
1285
1349
1424
1583
1726
1883
2006
2069
2135
2133
2105
2000
1872
1726
1561
1430
1356
1349
1417
1521
1579
1746
1894
2000
2096
2179
2160
2095
1967
1819
1643
1474
1344
1312
1401
1478
1622
1750
1842
1852
1914
1978
2096
2118
2057
1950
1801
1610
1475
1389
1360
1379
1472
1587
1712
1857
2007
2096
2172
2183
2112
1998
1870
1715
1552
1418
1361
1337
1392
1499
1624
1751
1919
2013
2078
2135
2160
2117
1967
1797
1655
1504
1380
1350
1344
1408
1552
1692
1827
1962
2095
2167
2175
2173
2079
1942
1776
1486
1404
1309
1277
1319
1388
1477
1664
1887
2019
2121
2175
2181
2134
2027
1903
1725
1566
1456
1392
1392
1420
1471
1590
1694
1894
2071
2133
2209
2224
2066
1943
1760
1589
1488
1426
1352
1300
1408
1535
1680
1829
1961
2047
2128
2161
2127
2037
1913
1775
1614
1475
1382
1376
1380
1463
1594
1713
1855
1969
2079
2162
2163
2119
2019
1888
1706
1596
1425
1354
1364
1408
1515
1623
1748
1872
1981
2069
2118
2128
2066
1973
1842
1675
1520
1424
1386
1404
1463
1561
1680
1789
1925
2037
2125
2159
2141
2033
1943
1827
1636
1456
1344
1298
1338
1392
1518
1714
1919
2059
2064
2047
2111
2125
2059
1956
1799
1552
1433
1366
1334
1394
1487
1612
1744
1891
2026
2128
2174
2167
2096
1979
1842
1651
1504
1391
1346
1340
1391
1535
1646
1792
1952
2066
2185
2231
2213
2117
2011
1818
1616
1428
1293
1184
1120
1184
1340
1503
1733
1977
2141
2350
2437
2443
2325
2175
1909
1653
1408
1225
1114
1098
1188
1325
1584
1786
2047
2261
2395
2431
2375
2222
2031
1843
1636
1371
1136
1056
1099
1231
1360
1530
1799
2110
2309
2399
2367
2298
2167
1966
1698
1442
1229
1152
1144
1210
1338
1484
1725
1939
2133
2315
2406
2422
2315
2169
1920
1665
1424
1243
1125
1089
1170
1328
1522
1774
1983
2207
2349
2423
2387
2283
2096
1817
1570
1329
1200
1090
1117
1229
1338
1552
1824
2069
2297
2481
2447
2352
2222
2000
1742
1463
1264
1136
1094
1144
1272
1424
1662
1941
2197
2352
2393
2401
2331
2150
1887
1637
1412
1245
1118
1094
1198
1358
1535
1774
1999
2204
2337
2399
2363
2263
2097
1822
1574
1360
1203
1120
1136
1218
1393
1630
1863
2064
2247
2397
2479
2411
2239
1927
1651
1424
1201
1053
1025
1126
1291
1488
1713
1942
2143
2323
2413
2416
2330
2161
1931
1655
1429
1264
1148
1136
1202
1343
1534
1783
1997
2183
2339
2385
2330
2211
2094
1880
1645
1328
1198
1122
1128
1264
1415
1613
1835
2041
2239
2377
2416
2341
2198
1983
1726
1479
1297
1170
1118
1168
1301
1450
1685
1907
2113
2293
2393
2395
2353
2135
1905
1703
1476
1280
1149
1088
1156
1296
1488
1727
1978
2179
2337
2423
2395
2274
2090
1835
1579
1356
1203
1114
1148
1258
1404
1600
1845
2064
2259
2353
2377
2293
2167
1918
1722
1488
1314
1184
1142
1173
1299
1485
1712
1939
2131
2311
2381
2397
2288
2099
1856
1634
1410
1258
1154
1134
1224
1360
1535
1765
1984
2187
2334
2399
2367
2251
2082
1808
1573
1360
1220
1117
1137
1265
1403
1615
1841
2029
2239
2352
2387
2299
2167
1993
1789
1535
1290
1171
1132
1194
1303
1466
1669
1891
2114
2267
2357
2383
2299
2139
1903
1657
1428
1277
1152
1142
1213
1349
1535
1809
1979
2171
2319
2387
2333
2253
2063
1823
1571
1362
1232
1136
1152
1262
1408
1611
1817
2043
2263
2369
2395
2333
2190
1994
1728
1477
1316
1217
1125
1168
1293
1455
1664
1906
2138
2305
2370
2371
2271
2131
1898
1653
1424
1264
1168
1136
1229
1364
1535
1781
1968
2150
2311
2381
2343
2256
2079
1823
1569
1370
1222
1134
1146
1260
1405
1622
1862
2033
2233
2356
2384
2318
2192
1984
1722
1479
1296
1189
1140
1176
1296
1484
1687
1905
2126
2288
2384
2359
2277
2133
1872
1600
1399
1268
1200
1167
1210
1360
1535
1794
2000
2183
2320
2375
2318
2235
2036
1808
1573
1368
1249
1184
1184
1320
1454
1606
1810
1995
2189
2321
2278
2238
2151
1959
1737
1523
1351
1219
1152
1200
1324
1488
1705
1917
2127
2307
2383
2375
2279
2122
1895
1635
1441
1274
1159
1148
1236
1376
1535
1744
1936
2162
2325
2405
2370
2263
2082
1791
1535
1328
1200
1132
1138
1233
1408
1664
1959
2101
2241
2341
2362
2303
2175
1953
1700
1470
1291
1184
1147
1200
1315
1478
1698
1921
2147
2299
2391
2373
2288
2112
1879
1611
1408
1249
1140
1133
1224
1352
1554
1776
2003
2193
2339
2407
2363
2224
2061
1808
1563
1341
1169
1056
1122
1264
1431
1738
1956
2064
2250
2351
2385
2315
2167
1967
1678
1440
1363
1166
1168
1216
1340
1515
1743
1922
2118
2299
2373
2352
2273
2115
1859
1609
1389
1252
1152
1147
1216
1369
1566
1806
1997
2211
2357
2411
2352
2226
2032
1792
1535
1340
1204
1145
1177
1362
1520
1690
1850
1989
2161
2286
2263
2241
2177
2007
1710
1488
1313
1200
1122
1280
1328
1491
1719
1910
2143
2299
2379
2375
2343
2123
1868
1618
1408
1236
1152
1136
1227
1367
1568
1788
2000
2199
2350
2402
2334
2219
2031
1762
1533
1341
1200
1136
1168
1273
1424
1629
1859
2063
2243
2351
2387
2338
2187
1959
1708
1476
1310
1170
1142
1205
1344
1502
1713
1921
2128
2291
2359
2359
2259
2093
1862
1630
1388
1261
1166
1152
1232
1392
1524
1737
1963
2199
2370
2523
2399
2239
2035
1780
1535
1323
1200
1132
1156
1268
1402
1628
1872
2033
2195
2319
2399
2351
2171
1957
1710
1475
1328
1190
1138
1200
1326
1497
1714
1934
2143
2303
2398
2383
2288
2103
1835
1601
1378
1220
1106
1109
1226
1399
1584
1807
2015
2224
2367
2363
2335
2222
2080
1788
1533
1336
1221
1146
1184
1292
1432
1650
1872
2065
2247
2352
2353
2291
2160
1941
1698
1474
1306
1200
1145
1231
1353
1503
1726
1920
2128
2286
2352
2326
2242
2089
1865
1624
1408
1280
1180
1193
1280
1403
1586
1802
1996
2180
2309
2361
2303
2192
2011
1775
1535
1370
1244
1188
1227
1320
1457
1654
1863
2038
2221
2315
2335
2269
2127
1915
1698
1472
1334
1190
1188
1259
1376
1520
1731
1943
2119
2270
2335
2292
2207
2067
1831
1623
1426
1280
1202
1205
1298
1424
1599
1795
1959
2192
2293
2395
2290
2171
1987
1809
1535
1362
1253
1185
1233
1326
1468
1655
1867
2064
2231
2315
2330
2247
2123
1911
1680
1469
1328
1229
1200
1266
1369
1529
1737
1928
2127
2255
2339
2295
2222
2071
1829
1609
1417
1296
1200
1204
1295
1433
1600
1814
1991
2176
2301
2331
2277
2171
1986
1744
1535
1360
1249
1200
1234
1343
1477
1674
1879
2063
2229
2319
2311
2249
2138
1909
1690
1465
1333
1226
1200
1259
1389
1535
1740
1936
2119
2262
2317
2307
2219
2035
1821
1611
1417
1305
1211
1196
1297
1429
1613
1800
1986
2181
2294
2320
2261
2166
1982
1751
1530
1369
1258
1189
1236
1346
1494
1679
1886
2065
2211
2317
2311
2250
2107
1898
1680
1477
1342
1216
1200
1272
1381
1535
1744
1939
2109
2277
2335
2307
2197
2046
1815
1611
1413
1296
1190
1213
1299
1425
1629
1817
2001
2185
2289
2333
2267
2161
1973
1751
1528
1352
1248
1184
1233
1341
1492
1678
1873
2064
2225
2320
2320
2241
2111
1890
1685
1467
1328
1224
1189
1273
1392
1563
1738
1953
2135
2273
2327
2299
2197
2032
1805
1602
1399
1281
1200
1213
1296
1434
1612
1814
2007
2194
2306
2330
2259
2158
1975
1741
1525
1403
1242
1216
1232
1340
1488
1674
1882
2090
2234
2314
2319
2231
2109
1889
1680
1456
1316
1305
1193
1264
1395
1554
1744
1945
2139
2271
2320
2294
2199
2043
1810
1591
1408
1280
1214
1220
1296
1428
1647
1835
2001
2182
2298
2330
2289
2110
1955
1729
1513
1360
1247
1201
1245
1382
1482
1690
1899
2075
2227
2307
2322
2241
2090
1874
1673
1456
1310
1217
1197
1264
1392
1567
1755
1946
2142
2285
2329
2293
2211
2043
1811
1585
1399
1280
1205
1206
1302
1433
1616
1826
2002
2197
2309
2331
2269
2154
1963
1735
1515
1349
1237
1188
1232
1366
1490
1681
1885
2083
2235
2317
2320
2231
2093
1871
1646
1455
1309
1212
1200
1264
1392
1571
1775
1955
2153
2277
2320
2289
2202
2032
1804
1584
1392
1280
1201
1207
1303
1455
1633
1826
2003
2203
2315
2330
2273
2148
1950
1728
1503
1345
1243
1184
1246
1350
1498
1710
1904
2089
2234
2321
2317
2243
2083
1872
1655
1449
1316
1216
1200
1264
1399
1579
1776
1967
2153
2287
2329
2299
2202
2032
1795
1582
1400
1270
1190
1202
1296
1441
1635
1840
2015
2214
2307
2339
2277
2141
1951
1718
1517
1348
1232
1186
1250
1359
1505
1704
1904
2111
2253
2321
2342
2241
2094
1874
1659
1441
1296
1207
1204
1275
1389
1584
1776
1966
2145
2285
2326
2297
2192
2011
1798
1584
1376
1270
1195
1225
1313
1438
1634
1840
2033
2199
2319
2333
2266
2150
1950
1717
1494
1348
1232
1197
1237
1362
1505
1696
1904
2097
2256
2320
2321
2234
2105
1866
1648
1438
1316
1217
1201
1280
1410
1571
1791
1968
2155
2299
2331
2288
2191
2011
1790
1569
1395
1267
1192
1216
1317
1457
1648
1839
2026
2202
2302
2333
2259
2151
1929
1712
1497
1338
1232
1195
1233
1373
1515
1723
1922
2103
2261
2335
2320
2233
2079
1846
1584
1444
1305
1200
1200
1287
1419
1570
1776
1961
2162
2295
2339
2287
2194
2000
1783
1569
1371
1258
1202
1220
1323
1456
1650
1847
2032
2209
2321
2335
2255
2128
1937
1703
1488
1339
1229
1190
1254
1358
1509
1722
1922
2107
2249
2310
2314
2225
2075
1859
1626
1424
1304
1210
1197
1287
1413
1585
1799
1983
2172
2301
2343
2283
2178
1998
1776
1560
1365
1262
1213
1225
1331
1473
1649
1861
2039
2203
2311
2323
2253
2133
1936
1698
1486
1344
1227
1200
1257
1375
1516
1727
1920
2118
2253
2334
2322
2226
2071
1842
1616
1399
1295
1214
1200
1297
1413
1597
1794
1984
2165
2311
2349
2293
2171
1991
1774
1554
1371
1264
1198
1227
1328
1469
1669
1865
2047
2223
2307
2323
2263
2122
1911
1689
1474
1330
1232
1191
1271
1364
1534
1744
1936
2126
2275
2327
2315
2207
2074
1835
1613
1415
1282
1206
1205
1291
1422
1603
1804
1986
2181
2311
2337
2266
2167
1991
1759
1535
1354
1249
1200
1232
1314
1475
1645
1863
2062
2226
2323
2331
2251
2113
1904
1681
1487
1330
1211
1196
1257
1377
1529
1757
1939
2125
2261
2319
2310
2223
2064
1838
1606
1411
1284
1204
1200
1293
1421
1601
1802
1987
2178
2303
2370
2287
2155
1986
1755
1535
1360
1242
1204
1227
1329
1488
1685
1877
2032
2217
2311
2333
2251
2118
1916
1680
1486
1328
1220
1190
1270
1378
1535
1747
1936
2143
2287
2346
2305
2199
2054
1821
1600
1404
1280
1206
1216
1305
1452
1619
1808
1987
2192
2309
2335
2279
2181
1970
1739
1521
1348
1241
1186
1229
1345
1493
1691
1901
2073
2233
2335
2335
2263
2127
1899
1677
1460
1327
1246
1232
1266
1392
1535
1759
1942
2141
2266
2322
2295
2197
2019
1808
1592
1392
1273
1204
1212
1313
1456
1646
1811
2007
2195
2303
2335
2287
2161
1975
1747
1523
1353
1232
1172
1222
1330
1488
1680
1889
2094
2239
2320
2323
2255
2107
1883
1667
1470
1322
1219
1184
1248
1379
1535
1744
1947
2146
2275
2351
2321
2225
2032
1814
1598
1397
1270
1194
1200
1297
1456
1600
1782
1993
2181
2307
2337
2275
2153
1978
1737
1520
1331
1219
1188
1217
1353
1498
1683
1891
2146
2278
2351
2339
2253
2103
1875
1648
1444
1303
1200
1153
1254
1380
1562
1744
1941
2143
2267
2342
2323
2239
2038
1807
1582
1390
1248
1184
1209
1307
1432
1613
1814
1987
2191
2303
2343
2275
2171
1949
1747
1527
1357
1245
1189
1236
1344
1504
1701
1882
2097
2235
2317
2310
2251
2095
1874
1667
1454
1315
1221
1200
1283
1408
1564
1769
1942
2149
2271
2326
2291
2199
2014
1775
1569
1368
1264
1185
1217
1366
1465
1658
1847
2046
2209
2311
2321
2259
2149
1917
1731
1520
1378
1249
1189
1246
1357
1503
1708
1898
2080
2247
2319
2337
2227
2097
1857
1649
1442
1313
1212
1205
1224
1382
1552
1754
1941
2148
2271
2325
2303
2201
1991
1800
1568
1388
1280
1204
1226
1325
1453
1681
1837
2014
2189
2290
2371
2261
2147
1943
1724
1509
1350
1234
1174
1231
1358
1496
1712
1911
2101
2243
2320
2320
2251
2123
1871
1640
1498
1307
1232
1203
1294
1406
1606
1781
1963
2151
2283
2320
2279
2175
2027
1789
1578
1373
1270
1206
1216
1324
1445
1645
1846
1991
2182
2283
2307
2261
2151
1951
1726
1496
1361
1263
1217
1267
1365
1529
1705
1915
2089
2238
2334
2316
2245
2071
1853
1642
1432
1307
1206
1201
1296
1409
1573
1747
1954
2146
2287
2334
2281
2187
2011
1787
1559
1376
1258
1214
1216
1322
1466
1648
1846
2033
2186
2279
2311
2259
2138
1935
1709
1510
1355
1273
1221
1254
1362
1512
1726
1904
2102
2257
2323
2325
2213
2100
1860
1645
1447
1314
1200
1189
1280
1418
1600
1805
1975
2175
2291
2325
2275
2189
1995
1765
1558
1376
1241
1189
1209
1318
1456
1664
1841
2043
2213
2317
2319
2243
2139
1921
1697
1488
1328
1232
1187
1254
1352
1533
1723
1904
2106
2267
2335
2311
2235
2047
1853
1623
1421
1296
1209
1206
1295
1408
1607
1814
1967
2172
2287
2320
2288
2180
1987
1777
1568
1360
1256
1198
1234
1323
1465
1663
1858
2047
2219
2314
2331
2258
2135
1925
1702
1494
1345
1229
1208
1280
1397
1534
1734
1915
2097
2258
2322
2306
2207
2038
1837
1667
1438
1296
1196
1206
1292
1421
1587
1799
1973
2139
2279
2320
2256
2160
1973
1747
1565
1393
1264
1197
1230
1345
1477
1666
1859
2037
2223
2305
2330
2242
2106
1895
1689
1482
1341
1240
1228
1273
1401
1554
1731
1926
2108
2242
2309
2291
2213
2047
1840
1606
1409
1296
1232
1216
1305
1437
1607
1803
1994
2155
2271
2320
2259
2160
1968
1751
1535
1397
1277
1219
1230
1336
1488
1661
1866
2047
2203
2305
2314
2263
2109
1899
1680
1475
1326
1241
1214
1296
1388
1535
1733
1931
2111
2255
2315
2274
2193
2058
1821
1606
1410
1297
1232
1235
1312
1449
1602
1802
1995
2177
2267
2291
2251
2149
1974
1755
1535
1376
1284
1248
1277
1362
1497
1680
1874
2054
2206
2290
2310
2235
2091
1871
1665
1473
1328
1234
1217
1280
1405
1535
1734
1915
2107
2248
2309
2289
2192
2023
1838
1610
1408
1310
1214
1232
1312
1455
1606
1828
2000
2171
2275
2309
2254
2141
1966
1755
1535
1377
1291
1238
1264
1345
1486
1680
1876
2047
2210
2303
2311
2237
2091
1873
1678
1475
1337
1252
1216
1300
1407
1573
1763
1971
2137
2261
2317
2279
2185
2020
1797
1597
1390
1275
1200
1216
1322
1435
1637
1819
1999
2191
2299
2317
2262
2140
1965
1745
1535
1371
1274
1229
1260
1369
1523
1685
1890
2064
2213
2299
2302
2238
2093
1862
1637
1444
1328
1221
1202
1285
1417
1584
1763
1938
2102
2253
2301
2287
2186
2033
1809
1611
1424
1280
1210
1232
1314
1456
1639
1822
1994
2189
2291
2326
2251
2134
1945
1732
1535
1370
1264
1221
1274
1392
1520
1699
1901
2063
2225
2303
2300
2210
2087
1872
1674
1468
1344
1244
1230
1288
1398
1570
1753
1947
2128
2239
2299
2256
2174
2011
1791
1589
1417
1296
1216
1249
1338
1451
1631
1833
1983
2182
2271
2303
2249
2130
1947
1729
1520
1377
1264
1223
1268
1372
1512
1680
1890
2063
2175
2303
2287
2223
2083
1876
1660
1455
1326
1238
1221
1293
1413
1579
1776
1939
2129
2253
2309
2273
2175
2006
1804
1584
1413
1308
1234
1242
1344
1465
1636
1837
2014
2186
2269
2303
2240
2126
1936
1728
1535
1367
1260
1216
1265
1371
1507
1698
1888
2069
2222
2303
2293
2210
2065
1863
1662
1450
1328
1241
1229
1292
1421
1570
1772
1966
2137
2259
2318
2279
2179
1997
1786
1589
1410
1281
1227
1232
1334
1472
1637
1851
2013
2177
2273
2309
2251
2135
1936
1717
1520
1368
1261
1227
1280
1389
1520
1699
1901
2075
2215
2293
2275
2205
2084
1860
1637
1457
1323
1239
1219
1296
1425
1587
1780
1942
2143
2270
2308
2263
2167
1987
1776
1564
1373
1254
1197
1232
1337
1478
1645
1843
2003
2191
2295
2311
2285
2176
1962
1727
1525
1375
1270
1232
1283
1398
1535
1703
1887
2079
2215
2286
2278
2209
2095
1889
1633
1444
1328
1232
1181
1296
1424
1589
1786
1945
2143
2266
2302
2258
2162
1986
1773
1563
1440
1303
1242
1258
1346
1477
1667
1846
2013
2176
2271
2305
2238
2111
1909
1710
1509
1378
1286
1245
1283
1386
1534
1715
1898
2079
2226
2295
2271
2207
2046
1845
1633
1438
1328
1235
1248
1315
1440
1597
1786
1966
2139
2256
2315
2241
2159
1977
1777
1573
1392
1295
1232
1266
1362
1465
1651
1838
2015
2194
2277
2295
2224
2113
1924
1694
1529
1362
1259
1241
1296
1409
1535
1728
1911
2103
2253
2319
2279
2192
2058
1839
1616
1450
1323
1238
1238
1328
1439
1616
1780
1955
2161
2247
2301
2229
2154
1965
1760
1558
1398
1291
1242
1267
1355
1491
1680
1847
2000
2192
2277
2294
2221
2143
1906
1709
1498
1360
1258
1232
1280
1398
1529
1734
1919
2107
2253
2313
2273
2190
2047
1837
1627
1447
1312
1242
1252
1331
1447
1607
1802
1968
2146
2265
2299
2255
2166
2001
1770
1562
1393
1276
1226
1252
1345
1488
1667
1872
2026
2187
2285
2285
2229
2097
1894
1691
1506
1360
1244
1210
1269
1394
1535
1737
1917
2097
2227
2289
2275
2194
2031
1831
1618
1424
1307
1230
1236
1330
1446
1615
1808
1973
2160
2282
2303
2256
2160
1998
1748
1535
1381
1274
1218
1245
1354
1494
1681
1875
2011
2191
2288
2295
2235
2110
1911
1685
1509
1354
1252
1219
1289
1403
1535
1744
1925
2099
2245
2303
2269
2162
2031
1825
1603
1417
1300
1232
1244
1344
1459
1598
1794
1981
2160
2284
2315
2255
2157
1957
1744
1530
1363
1274
1230
1251
1360
1510
1692
1877
2034
2189
2282
2288
2224
2100
1883
1678
1488
1370
1264
1248
1310
1406
1561
1758
1919
2111
2255
2311
2257
2187
2036
1819
1616
1424
1305
1232
1242
1332
1450
1629
1822
1986
2160
2282
2318
2246
2143
1953
1728
1508
1348
1260
1227
1259
1374
1502
1699
1904
2087
2224
2285
2287
2223
2099
1885
1674
1472
1360
1259
1239
1309
1408
1574
1742
1937
2113
2243
2307
2278
2192
2023
1803
1604
1398
1296
1227
1232
1330
1458
1616
1797
1971
2161
2287
2301
2249
2143
1959
1758
1535
1376
1270
1224
1254
1355
1488
1682
1875
2062
2207
2311
2294
2226
2080
1872
1667
1477
1328
1226
1208
1296
1381
1553
1759
1946
2117
2253
2311
2283
2192
2033
1821
1600
1419
1295
1230
1226
1329
1472
1636
1799
1968
2179
2289
2320
2269
2151
1953
1728
1535
1357
1244
1212
1253
1349
1504
1680
1868
2063
2219
2295
2313
2242
2117
1904
1680
1484
1341
1229
1194
1235
1356
1552
1771
1936
2123
2263
2315
2295
2205
2055
1831
1598
1418
1280
1229
1216
1324
1443
1631
1837
2002
2191
2299
2313
2263
2153
1959
1694
1516
1349
1204
1189
1244
1358
1506
1711
1902
2086
2239
2319
2316
2245
2101
1894
1660
1470
1317
1202
1205
1270
1401
1559
1766
1957
2131
2282
2327
2227
2209
2023
1785
1552
1382
1292
1196
1216
1308
1509
1630
1840
2015
2087
2261
2325
2261
2151
1963
1738
1520
1374
1264
1194
1257
1367
1508
1727
1840
2069
2225
2319
2305
2222
2085
1885
1661
1384
1324
1216
1216
1318
1421
1586
1775
1953
2111
2262
2321
2289
2209
1938
1789
1594
1385
1312
1206
1234
1302
1440
1653
1847
2017
2192
2283
2321
2253
2147
1950
1758
1520
1372
1241
1232
1261
1359
1510
1705
1901
2068
2225
2303
2299
2219
2097
1873
1661
1462
1331
1232
1216
1298
1426
1569
1773
1943
2112
2255
2299
2275
2181
2000
1797
1598
1401
1265
1216
1218
1329
1456
1629
1819
2002
2192
2303
2315
2247
2130
1935
1717
1506
1348
1269
1212
1242
1353
1512
1696
1891
2081
2231
2307
2302
2191
2064
1837
1641
1456
1331
1245
1229
1316
1408
1591
1777
1973
2159
2267
2315
2278
2192
2009
1793
1558
1367
1261
1204
1246
1332
1456
1652
1853
2029
2194
2282
2327
2261
2137
1936
1727
1520
1360
1237
1229
1254
1379
1491
1701
1899
2083
2224
2301
2295
2239
2075
1856
1651
1456
1316
1229
1224
1298
1429
1595
1783
1954
2143
2261
2303
2265
2181
2012
1805
1597
1402
1296
1236
1238
1318
1456
1628
1847
2011
2196
2299
2319
2237
2119
1924
1712
1513
1353
1255
1246
1270
1378
1533
1695
1899
2066
2231
2306
2280
2205
2047
1840
1617
1437
1323
1244
1232
1309
1424
1590
1791
1959
2143
2273
2313
2253
2179
2006
1786
1583
1411
1298
1227
1254
1340
1463
1625
1828
1999
2174
2271
2295
2227
2119
1930
1727
1518
1360
1258
1234
1280
1381
1533
1730
1904
2074
2218
2290
2282
2199
2039
1840
1648
1447
1344
1262
1250
1328
1440
1600
1792
1936
2106
2223
2263
2233
2150
1986
1776
1587
1413
1294
1238
1264
1350
1482
1652
1846
2026
2175
2271
2290
2215
2109
1917
1730
1527
1380
1274
1257
1296
1419
1535
1719
1903
2078
2235
2291
2270
2189
2060
1854
1632
1456
1317
1239
1218
1308
1421
1586
1779
1955
2126
2247
2303
2259
2153
1985
1770
1584
1413
1299
1251
1266
1351
1490
1661
1840
2032
2186
2283
2299
2227
2099
1910
1692
1523
1361
1269
1240
1298
1392
1535
1719
1903
2074
2291
2342
2291
2193
2006
1793
1614
1409
1300
1218
1222
1306
1441
1601
1794
1968
2155
2285
2315
2291
2167
1995
1779
1569
1392
1272
1203
1231
1314
1446
1662
1849
2032
2195
2310
2313
2242
2119
1915
1725
1519
1354
1229
1208
1239
1353
1534
1739
1946
2160
2293
2339
2291
2192
2035
1783
1574
1374
1285
1222
1242
1281
1408
1603
1798
1987
2187
2305
2341
2301
2186
2000
1759
1535
1358
1232
1187
1221
1313
1465
1669
1871
2075
2234
2331
2354
2287
2143
1914
1664
1456
1288
1189
1170
1234
1360
1535
1761
1955
2141
2295
2369
2322
2235
2074
1813
1586
1385
1248
1168
1170
1260
1392
1606
1824
2018
2224
2335
2375
2305
2191
1991
1739
1503
1321
1198
1149
1200
1305
1488
1693
1905
2103
2285
2357
2367
2288
2135
1891
1653
1424
1266
1173
1136
1232
1362
1535
1761
1980
2186
2319
2383
2347
2226
2062
1795
1552
1365
1234
1157
1166
1269
1429
1628
1841
2035
2229
2351
2373
2305
2183
1970
1729
1493
1312
1203
1137
1188
1322
1471
1694
1927
2082
2290
2370
2358
2285
2112
1877
1638
1417
1267
1169
1156
1230
1381
1555
1789
1972
2173
2301
2369
2331
2241
2041
1814
1560
1364
1252
1168
1177
1283
1421
1630
1849
2017
2210
2325
2359
2289
2179
1977
1712
1497
1328
1219
1194
1229
1339
1488
1699
1883
2047
2224
2318
2298
2230
2094
1873
1664
1472
1360
1264
1259
1322
1431
1586
1753
1904
2091
2206
2239
2211
2123
1985
1779
1610
1456
1376
1328
1315
1406
1504
1659
1840
1959
2117
2192
2218
2167
2062
1915
1725
1552
1426
1350
1320
1367
1443
1571
1705
1851
2025
2155
2228
2199
2112
2000
1829
1667
1505
1424
1342
1333
1405
1490
1614
1769
1919
2059
2175
2207
2177
2088
1946
1759
1606
1477
1398
1339
1351
1418
1535
1668
1815
1950
2096
2189
2191
2131
2045
1875
1709
1564
1440
1379
1344
1384
1472
1584
1726
1875
1998
2139
2182
2171
2093
1991
1806
1651
1506
1415
1357
1360
1440
1505
1637
1771
1903
2062
2160
2192
2160
2069
1921
1754
1583
1458
1405
1347
1382
1467
1552
1686
1835
1950
2069
2162
2186
2117
2021
1875
1701
1535
1438
1396
1367
1420
1489
1590
1723
1854
2006
2135
2176
2147
2083
1959
1806
1644
1507
1427
1370
1374
1441
1519
1652
1792
1926
2060
2151
2187
2128
2047
1906
1743
1603
1462
1412
1354
1405
1477
1571
1686
1825
1953
2075
2161
2151
2094
2000
1850
1681
1571
1465
1394
1384
1424
1507
1620
1763
1890
2000
2119
2151
2119
2047
1951
1780
1627
1510
1432
1362
1377
1451
1558
1669
1799
1904
2063
2128
2162
2112
2031
1906
1747
1602
1466
1412
1377
1395
1467
1567
1695
1838
1969
2107
2149
2154
2091
2015
1856
1690
1535
1456
1392
1375
1424
1505
1613
1747
1872
1989
2112
2159
2159
2125
1989
1808
1641
1470
1397
1345
1360
1414
1520
1664
1811
1954
2067
2151
2169
2113
2043
1887
1701
1584
1509
1483
1456
1409
1476
1573
1710
1818
1940
2078
2139
2150
2098
1982
1823
1678
1552
1427
1394
1379
1428
1532
1628
1744
1894
2002
2107
2125
2119
2047
1945
1797
1642
1517
1441
1392
1395
1472
1555
1680
1803
1911
2031
2134
2151
2105
2007
1882
1739
1597
1482
1425
1392
1420
1503
1577
1701
1841
1950
2078
2145
2135
2085
1991
1842
1694
1558
1461
1408
1395
1454
1522
1634
1754
1859
2005
2105
2142
2132
2059
1959
1791
1654
1520
1433
1390
1380
1458
1535
1659
1798
1906
2047
2134
2143
2106
2047
1919
1744
1616
1488
1420
1382
1406
1476
1587
1711
1830
1962
2083
2121
2127
2097
2002
1855
1710
1561
1462
1392
1371
1415
1500
1579
1739
1856
1996
2111
2150
2138
2083
1972
1809
1655
1514
1435
1387
1378
1443
1523
1643
1779
1923
2039
2149
2165
2123
2038
1917
1744
1600
1483
1406
1376
1392
1454
1554
1686
1823
1945
2080
2147
2151
2107
2003
1843
1711
1581
1472
1403
1353
1415
1483
1581
1725
1849
2007
2131
2181
2157
2096
1967
1797
1648
1516
1432
1369
1384
1436
1521
1647
1767
1904
2039
2130
2149
2117
2032
1917
1759
1605
1490
1440
1390
1414
1487
1578
1691
1807
1932
2039
2143
2146
2097
2002
1863
1710
1585
1483
1413
1379
1432
1505
1610
1723
1865
1984
2107
2126
2126
2068
1952
1798
1664
1530
1440
1379
1392
1457
1535
1670
1797
1885
2027
2103
2139
2130
2062
1910
1757
1610
1488
1427
1390
1430
1488
1579
1691
1831
1948
2064
2107
2118
2067
1981
1845
1725
1575
1488
1424
1408
1440
1530
1621
1734
1871
1990
2087
2129
2112
2067
1945
1778
1630
1519
1461
1417
1413
1477
1565
1665
1789
1919
2025
2101
2127
2087
2064
1884
1747
1628
1501
1424
1411
1432
1498
1574
1713
1841
1952
2077
2099
2113
2081
1983
1844
1705
1568
1488
1410
1409
1456
1522
1627
1745
1882
1983
2078
2103
2090
2041
1943
1794
1653
1535
1449
1413
1421
1456
1568
1664
1769
1889
2018
2094
2118
2097
2026
1905
1763
1633
1509
1434
1394
1431
1490
1573
1694
1831
1951
2058
2112
2107
2087
1979
1856
1689
1590
1487
1425
1360
1403
1518
1633
1757
1874
2033
2154
2155
2109
2009
1858
1747
1628
1482
1466
1413
1394
1486
1570
1661
1792
1885
2027
2114
2131
2109
2023
1913
1754
1616
1504
1433
1329
1418
1474
1599
1711
1889
1941
2055
2113
2171
2096
1995
1868
1728
1498
1429
1418
1470
1552
1535
1647
1775
1872
2031
2099
2127
2096
2032
1887
1761
1634
1520
1456
1425
1423
1467
1531
1642
1783
1920
2014
2083
2131
2104
2039
1933
1765
1642
1504
1404
1384
1392
1466
1571
1711
1810
1949
2079
2143
2146
2101
2010
1855
1699
1584
1460
1397
1377
1405
1482
1606
1730
1862
1983
2098
2142
2128
2077
1969
1817
1652
1519
1440
1377
1366
1430
1520
1660
1824
1983
2071
2128
2112
2055
2015
1910
1763
1613
1502
1421
1371
1393
1446
1535
1691
1833
1957
2089
2143
2155
2119
2017
1877
1723
1565
1453
1370
1362
1418
1488
1611
1749
1875
2003
2111
2159
2138
2103
1973
1809
1674
1517
1424
1362
1361
1410
1514
1630
1802
1925
2064
2138