1839
1871
1834
1868
1539
1512
1540
1661
1700
1745
1766
1854
1970
1880
2151
2115
1643
1548
1580
1442
1562
1746
1698
1734
1906
2083
1890
1725
1577
1391
1421
1681
1838
1948
1963
1859
1723
1780
1828
1952
1803
1725
1754
1992
1926
1761
1642
1640
1678
1808
1926
1835
1796
1643
1356
1570
1757
1829
1808
1645
1520
1560
1688
1862
1962
1804
1809
1856
1838
1880
1808
1845
1830
1797
1801
1802
1745
1754
1635
1771
1520
1453
1691
1830
1709
1729
1621
1443
1376
1797
2100
2191
2315
1883
1681
1805
1712
1801
1710
1834
1881
1660
1573
1551
1845
1826
1764
2066
1856
1647
1557
1428
1489
1841
2018
1745
1666
1708
1613
1549
1717
1755
1736
2002
2003
1703
1733
1790
1722
1751
1877
2023
1935
1896
1671
1420
1423
1706
1782
1766
1880
1935
1786
1793
1627
1473
1562
1594
1784
1721
1782
1908
1736
1801
1825
1831
1853
1856
1929
1809
1739
1601
1605
1633
1679
1698
1793
1754
1800
1740
2001
1989
1808
1902
1818
1799
1739
1673
1597
1529
1782
1881
1714
1744
1647
1653
1831
1774
1730
1786
1838
1922
1955
1890
1763
1433
1702
1855
1915
1945
1669
1610
1554
1631
1720
1787
1914
1906
1757
1569
1532
1528
1555
1725
1763
1806
1932
1958
1828
1798
1860
1830
1841
1821
1743
1661
1514
1692
1625
1612
1746
1862
2023
1878
1830
1673
1628
1544
1598
1875
1912
1916
1833
1717
1722
1773
1770
1833
1895
1719
1910
1567
1595
2097
1911
1636
1663
1622
1696
1602
1540
1620
1609
1695
1808
1857
1881
1855
1765
1632
1740
1732
1856
2085
1822
1662
1649
1727
1661
1659
1772
1762
1791
1793
1742
1710
1801
1698
1615
1811
1904
1872
1931
1796
1702
1616
1704
1749
1720
1712
1805
1790
1760
1878
1994
1797
1753
1791
1691
1700
1675
1627
1509
1743
1836
1691
1715
1672
1635
1717
1780
1902
2160
2033
1922
1915
1547
1479
1693
1646
1611
1682
1813
1714
1765
1625
1451
1617
1774
1970
2035
1854
1643
1597
1723
1680
1803
2013
2029
1837
1819
1713
1687
1833
1848
1745
1765
1651
1770
1859
1972
1975
1563
1661
1731
1720
1706
1671
1635
1621
1704
1741
1934
1984
1866
1754
1636
1663
1687
1711
1889
1870
1745
1700
1598
1452
1489
1601
1799
1895
1887
1934
1886
1702
1622
1651
1789
1828
1895
1815
1830
1787
1824
1697
1742
1814
1609
1649
1819
1726
1676
1912
1852
1841
1661
1662
1790
1809
1632
1785
1884
1818
1682
1653
1738
1688
1704
1915
1672
1639
1696
1758
1873
1891
1856
1780
1749
1713
1752
1802
1832
1821
1764
1752
1735
1710
1780
1823
1766
1703
1761
1700
1625
1664
1720
1746
1817
1841
1836
1771
1763
1765
1777
1707
1792
1864
2020
1944
1621
1532
1607
1636
1702
1710
1700
1708
1580
1671
1818
1887
1873
1843
1771
1752
1787
1835
1743
1674
1787
2219
2025
1698
1604
1615
1641
1851
1640
1577
1499
1546
1619
1681
1659
1728
1680
1814
1970
1940
2037
1736
1649
1741
1773
1852
1848
1743
1711
1751
1707
1671
1886
1859
1904
1844
1805
1750
1659
1593
1510
1552
1636
1769
1882
2024
1960
1638
1754
1852
1937
1993
1976
1772
1639
1663
1640
1555
1569
1686
1703
1740
1854
1731
1611
1629
1658
1748
1788
1806
1802
1787
1825
1960
1802
1767
1883
1738
1873
1848
1769
1708
1939
1817
1813
1659
1544
1587
1805
1653
1760
1941
1823
1527
1435
1668
1698
1649
1864
1958
1764
1809
1864
1909
1572
1562
1713
1781
1855
1993
1777
1862
2042
1922
1759
1633
1536
1477
1614
1612
1694
1704
1458
1441
1869
1778
1731
1956
1987
1823
1813
1750
1788
1818
1931
1951
1998
1906
1771
1631
1569
1589
1768
1711
1815
1799
1767
1727
1738
1794
1809
1914
1884
1768
1498
1482
1720
1628
1639
1806
2016
1676
1748
1865
1757
1798
1747
1761
1817
1828
1790
1625
1645
1670
1658
1710
1754
1782
1807
1753
1675
1654
1690
1753
1760
1948
2032
1894
1578
1634
1670
1780
1755
1860
2102
2105
1977
1735
1515
1499
1691
1635
1706
1720
1781
1685
1674
1718
1696
1766
1923
1845
1946
2027
1696
1676
1563
1671
1490
1694
1756
1607
1909
2011
1683
1669
1733
1747
1835
1866
1762
1834
1957
1845
1822
1845
1766
1682
1667
1735
1693
1756
1695
1544
1720
1997
1880
1748
1659
1672
1678
1826
1895
1903
1739
1538
1468
1527
1729
1910
2116
2068
1824
1754
1734
1749
1629
1612
1547
1447
1808
2054
1923
1691
1562
1704
1621
1675
1866
1964
1770
1719
1640
1692
1903
2069
1883
1662
1609
1681
1599
1585
1830
2128
2205
1654
1491
1518
1645
1740
1681
1715
1714
1754
1772
1749
1734
1764
1810
1917
1885
1814
1752
1682
1675
1774
1826
1838
1918
1849
1769
1716
1702
1667
1645
1647
1709
1792
1809
1781
1718
1741
1825
1792
1841
1884
1809
1688
1691
1772
1728
1719
1783
1796
1674
1742
1632
1617
1739
1717
1775
1841
1858
1792
1717
1740
1898
1913
1732
1573
1605
1804
1826
1623
1716
1943
1974
1915
1945
1777
1636
1489
1485
1402
1490
1805
2168
2134
1696
1635
1748
1771
1762
1767
1848
1899
1706
1541
1595
1587
1459
1907
2173
1937
1607
1640
1835
1841
1746
1737
1765
1866
1895
1890
1866
1802
1626
1618
1687
1676
1701
1745
1720
1649
1647
1768
1842
1947
1884
1786
1731
1644
1639
1617
1720
1823
1860
1831
1827
1759
1642
1622
1703
1903
1908
1913
1910
1835
1762
1673
1497
1516
1734
1724
1732
1780
1749
1728
1807
1839
1813
1828
1851
1826
1745
1705
1652
1442
1682
1903
2111
2101
1632
1507
1488
1740
1692
1736
2099
2427
1903
1248
1318
1627
1757
1576
1707
1836
1915
1869
1486
1534
1644
1643
1823
1848
1875
1830
1753
1679
1699
2018
2407
1865
1408
1714
1716
1752
1778
1786
1770
1885
1912
1682
1552
1570
1601
1682
1727
1774
1774
1801
1743
1691
1683
1880
1698
1709
1757
1890
1754
1638
1666
1740
1772
1895
1864
1878
1911
1848
1644
1664
1725
1702
1735
1802
1788
1686
1685
1803
1761
1732
1812
1724
1700
1718
1701
1697
1785
1839
1815
1821
1859
1770
1630
1530
1539
1676
1824
1881
2033
2164
1893
1747
1753
1643
1601
1584
1824
1843
1777
1596
1445
1644
1926
1748
1809
1948
2004
1723
1596
1622
1680
1652
1801
1798
1830
1766
1634
1761
1694
1689
1870
1933
1821
1796
1757
1723
1823
1764
1800
1804
1693
1671
1716
1849
1783
1794
1894
1887
1737
1604
1539
1509
1475
1534
1679
1784
1944
1955
1869
1766
1752
1736
1754
1851
1840
1795
1802
1763
1672
1709
1777
1787
1820
1844
1813
1738
1696
1686
1692
1713
1762
1766
1786
1818
1755
1710
1765
1726
1667
1824
1899
1886
1837
1691
1507
1555
1600
1654
1751
1890
1815
1887
1928
1942
1669
1758
1885
1854
1778
1589
1571
1592
1605
1550
1752
1795
1750
1914
1949
1731
1807
1787
1928
1843
1831
1743
1705
1662
1612
1567
1703
1813
1866
1801
1931
1649
1643
1661
1670
1688
1743
1842
1781
1692
1703
1672
1829
1758
1766
1830
1847
1773
1837
1915
1785
1742
1790
1846
1741
1603
1690
1700
1743
1811
1851
1819
1810
1776
1684
1655
1719
1763
1840
1819
1801
1740
1660
1622
1630
1687
1778
1883
2061
1933
1793
1689
1717
1706
1744
1785
1731
1657
1697
1807
1719
1684
1830
1761
1558
1672
1705
1648
1644
1743
1697
1777
2010
1909
1707
1647
1902
1765
1754
1843
1852
1798
1850
1818
1882
1809
1793
1675
1699
1809
1855
1544
1389
1739
1642
1701
1773
1782
1755
1811
1802
1701
1747
1772
1830
1896
1880
1811
1757
1743
1721
1696
1738
1752
1768
1777
1759
1687
1681
1756
1737
1789
1866
1864
1815
1755
1728
1701
1720
1763
1759
1757
1759
1723
1648
1636
1729
1742
1832
1891
1868
1815
1734
1727
1669
1679
1717
1728
1778
1816
1816
1688
1699
1701
1708
1785
1872
1851
1770
1804
1723
1656
1746
1781
1768
1772
1752
1671
1662
1772
1781
1809
1861
1858
1801
1728
1720
1677
1694
1734
1761
1769
1786
1759
1672
1700
1767
1783
1831
1861
1833
1773
1742
1694
1675
1693
1750
1766
1805
1830
1744
1657
1781
1801
1767
1752
1761
1732
1722
1709
1667
1805
1809
1710
1760
1831
1798
1712
1693
1761
1767
1792
1751
1868
1830
1745
1684
1671
1670
1693
1737
1802
1822
1714
1600
1642
1810
1813
1905
1872
1817
1727
1695
1699
1674
1713
1791
1765
1793
1814
1766
1707
1749
1772
1783
1846
1839
1792
1724
1703
1698
1686
1723
1753
1794
1811
1794
1712
1692
1775
1756
1779
1850
1793
1780
1711
1694
1667
1680
1775
1820
1790
1815
1728
1694
1711
1761
1821
1842
1841
1792
1745
1636
1669
1639
1778
1907
1774
1717
1734
1705
1643
1716
1701
1732
1843
1929
1834
1740
1712
1786
1856
1742
1697
1752
1801
1745
1572
1636
1797
1838
1832
1834
1807
1737
1689
1631
1619
1679
1747
1779
1810
1856
1794
1701
1713
1771
1853
1879
1886
1842
1783
1732
1714
1645
1676
1713
1720
1758
1791
1745
1720
1795
1822
1824
1863
1846
1766
1688
1666
1645
1648
1703
1742
1773
1817
1793
1708
1700
1772
1757
1772
1850
1846
1793
1732
1703
1657
1670
1726
1783
1822
1850
1805
1713
1748
1792
1793
1818
1851
1782
1710
1680
1691
1767
1710
1715
1736
1773
1820
1755
1689
1744
1743
1740
1799
1825
1779
1710
1701
1698
1709
1763
1830
1837
1844
1817
1639
1669
1743
1745
1827
1860
1823
1748
1695
1640
1596
1650
1746
1807
1853
1857
1794
1661
1704
1736
1760
1808
1828
1805
1742
1717
1710
1687
1736
1771
1803
1818
1841
1746
1684
1735
1761
1770
1799
1800
1773
1709
1698
1692
1706
1756
1792
1768
1785
1786
1748
1825
1795
1752
1778
1832
1802
1747
1693
1682
1645
1691
1746
1785
1796
1820
1780
1701
1699
1750
1736
1787
1840
1816
1775
1735
1725
1690
1727
1749
1755
1791
1793
1716
1708
1775
1793
1797
1827
1830
1771
1712
1701
1700
1709
1735
1732
1779
1841
1805
1690
1666
1747
1789
1863
1886
1822
1666
1611
1713
1750
1645
1741
1740
1744
1808
1824
1750
1748
1757
1763
1805
1827
1744
1689
1706
1716
1696
1743
1784
1815
1837
1834
1753
1710
1749
1731
1751
1799
1816
1774
1728
1710
1704
1706
1758
1789
1822
1842
1815
1722
1694
1746
1744
1772
1808
1800
1750
1704
1659
1675
1716
1763
1787
1805
1829
1783
1702
1720
1761
1753
1801
1810
1831
1736
1709
1693
1683
1733
1776
1797
1823
1824
1753
1688
1739
1740
1749
1795
1813
1782
1720
1713
1703
1705
1763
1792
1803
1829
1806
1703
1682
1749
1744
1774
1825
1810
1749
1709
1692
1684
1723
1767
1786
1815
1832
1779
1694
1720
1752
1754
1803
1826
1786
1725
1700
1704
1680
1736
1786
1801
1829
1823
1739
1680
1732
1738
1751
1821
1813
1781
1729
1720
1692
1699
1741
1772
1789
1815
1811
1715
1702
1726
1730
1767
1829
1926
1808
1690
1675
1665
1719
1763
1775
1776
1798
1760
1678
1722
1762
1770
1809
1832
1809
1742
1713
1705
1677
1728
1772
1796
1830
1853
1750
1695
1741
1756
1767
1826
1828
1790
1730
1716
1650
1681
1715
1756
1785
1848
1820
1727
1709
1757
1744
1763
1808
1800
1762
1684
1675
1676
1707
1760
1802
1834
1864
1826
1727
1733
1815
1734
1757
1785
1768
1695
1614
1616
1689
1791
1893
1814
1790
1807
1836
1721
1739
1686
1702
1792
1807
1796
1708
1715
1716
1723
1759
1805
1863
1870
1835
1685
1651
1713
1701
1762
1741
1684
1714
1775
1814
1780
1784
1758
1781
1795
1851
1754
1638
1674
1746
1745
1775
1803
1791
1747
1762
1719
1698
1737
1783
1805
1830
1829
1759
1704
1748
1750
1774
1830
1818
1777
1718
1709
1710
1722
1768
1801
1798
1847
1808
1706
1685
1731
1725
1743
1785
1771
1730
1687
1679
1666
1713
1757
1798
1820
1830
1794
1716
1734
1753
1757
1811
1824
1788
1741
1720
1703
1690
1743
1774
1779
1793
1805
1781
1802
1903
1758
1711
1806
1797
1737
1639
1616
1661
1726
1790
1796
1816
1817
1814
1811
1766
1807
1810
1824
1850
1757
1611
1551
1695
1751
1807
1746
1637
1582
1640
1728
1715
1759
1787
1791
1844
1849
1821
1824
1737
1723
1702
1757
1809
1825
1842
1832
1753
1711
1756
1753
1759
1813
1806
1785
1735
1718
1702
1707
1752
1770
1795
1818
1796
1702
1688
1747
1752
1772
1800
1788
1755
1717
1715
1697
1727
1784
1795
1810
1826
1779
1699
1720
1751
1740
1798
1818
1785
1736
1710
1708
1689
1738
1775
1791
1822
1828
1740
1684
1734
1735
1755
1804
1815
1777
1724
1712
1692
1705
1758
1781
1811
1827
1805
1711
1705
1752
1750
1773
1813
1793
1761
1720
1706
1688
1717
1761
1787
1762
1783
1763
1720
1804
1847
1786
1784
1835
1772
1677
1696
1677
1651
1709
1739
1786
1803
1820
1748
1701
1757
1734
1739
1841
1889
1813
1730
1710
1687
1687
1718
1725
1769
1841
1830
1716
1687
1714
1719
1759
1822
1834
1787
1737
1737
1693
1727
1804
1810
1822
1834
1777
1701
1724
1744
1744
1794
1819
1794
1724
1710
1700
1691
1741
1776
1791
1820
1806
1709
1685
1735
1729
1759
1820
1821
1778
1719
1715
1709
1710
1764
1786
1808
1829
1793
1707
1691
1742
1742
1787
1818
1815
1769
1732
1704
1676
1722
1764
1786
1762
1765
1739
1698
1788
1852
1798
1811
1810
1780
1715
1695
1685
1683
1735
1775
1788
1810
1807
1737
1682
1735
1741
1750
1807
1817
1790
1720
1705
1705
1733
1754
1787
1793
1797
1785
1714
1718
1768
1755
1770
1782
1766
1724
1678
1757
1696
1744
1803
1835
1851
1870
1792
1705
1701
1680
1659
1752
1804
1794
1753
1738
1728
1710
1754
1784
1803
1827
1811
1743
1692
1743
1747
1764
1821
1828
1783
1722
1709
1700
1707
1744
1843
1803
1819
1792
1704
1691
1742
1752
1786
1825
1805
1760
1729
1713
1693
1723
1760
1777
1789
1801
1763
1695
1736
1754
1763
1824
1844
1822
1749
1715
1684
1661
1700
1709
1766
1815
1806
1746
1697
1740
1753
1767
1827
1837
1796
1696
1650
1625
1706
1847
1900
1813
1794
1785
1708
1698
1750
1754
1763
1815
1812
1806
1795
1850
1714
1657
1683
1701
1711
1722
1735
1715
1773
1812
1787
1806
1792
1773
1705
1714
1722
1718
1770
1796
1784
1802
1807
1743
1696
1743
1749
1785
1833
1826
1782
1720
1698
1684
1708
1765
1774
1800
1834
1802
1715
1702
1760
1738
1767
1811
1806
1741
1724
1704
1675
1718
1756
1781
1795
1816
1763
1685
1717
1747
1754
1812
1825
1805
1743
1712
1707
1697
1740
1782
1800
1821
1815
1729
1694
1742
1739
1751
1814
1817
1774
1723
1706
1685
1702
1751
1772
1796
1819
1788
1697
1656
1692
1722
1799
1892
1905
1767
1712
1702
1693
1746
1765
1784
1806
1817
1761
1684
1728
1754
1756
1809
1819
1777
1723
1701
1692
1676
1735
1772
1793
1821
1813
1737
1685
1742
1741
1767
1813
1816
1777
1714
1709
1694
1710
1763
1782
1804
1826
1797
1707
1701
1748
1747
1783
1817
1803
1805
1705
1712
1706
1763
1813
1833
1828
1792
1733
1616
1650
1691
1702
1790
1903
1838
1738
1713
1699
1680
1723
1750
1783
1823
1809
1739
1698
1761
1759
1767
1812
1816
1769
1716
1706
1687
1671
1760
1777
1803
1833
1789
1703
1709
1751
1750
1789
1827
1824
1867
1733
1702
1668
1682
1670
1725
1798
1883
1862
1745
1740
1743
1741
1822
1848
1798
1723
1681
1657
1673
1731
1763
1786
1818
1805
1729
1691
1744
1755
1771
1826
1820
1782
1726
1706
1687
1713
1755
1781
1805
1825
1790
1701
1704
1749
1753
1786
1819
1798
1755
1718
1707
1674
1718
1766
1789
1807
1817
1768
1704
1727
1745
1717
1809
1827
1796
1725
1713
1705
1706
1743
1763
1793
1829
1866
1710
1697
1739
1726
1756
1817
1809
1766
1727
1708
1685
1711
1760
1784
1811
1824
1787
1722
1710
1765
1755
1770
1814
1798
1760
1718
1780
1689
1746
1761
1770
1811
1812
1825
1737
1646
1678
1714
1805
1819
1764
1716
1695
1692
1724
1701
1791
1817
1844
1831
1746
1706
1764
1762
1783
1836
1825
1782
1722
1710
1694
1715
1758
1714
1801
1826
1788
1701
1708
1754
1756
1791
1848
1800
1747
1696
1708
1701
1716
1752
1770
1790
1807
1764
1715
1737
1682
1762
1804
1815
1784
1719
1708
1697
1691
1719
1780
1801
1823
1812
1708
1692
1742
1740
1774
1827
1825
1777
1724
1702
1691
1711
1750
1769
1793
1826
1819
1696
1629
1684
1736
1796
1882
1894
1746
1690
1694
1670
1722
1767
1750
1811
1826
1767
1684
1721
1741
1751
1810
1821
1797
1723
1708
1706
1699
1749
1778
1808
1817
1812
1724
1688
1758
1804
1768
1796
1800
1749
1696
1702
1721
1770
1801
1787
1805
1781
1733
1662
1661
1736
1763
1787
1805
1791
1751
1704
1714
1700
1744
1795
1803
1811
1815
1767
1693
1725
1745
1752
1808
1826
1782
1669
1704
1710
1705
1752
1790
1823
1841
1812
1734
1679
1738
1735
1773
1820
1806
1771
1721
1684
1676
1704
1768
1792
1814
1835
1789
1694
1689
1733
1731
1785
1821
1804
1767
1707
1686
1694
1728
1782
1808
1839
1850
1790
1702
1725
1684
1658
1727
1784
1855
1897
1750
1692
1685
1731
1763
1779
1818
1811
1737
1698
1743
1751
1763
1818
1802
1759
1707
1700
1691
1799
1760
1777
1805
1818
1779
1703
1710
1748
1766
1818
1828
1806
1742
1687
1678
1670
1723
1782
1803
1813
1816
1774
1703
1730
1747
1749
1790
1809
1787
1739
1734
1718
1706
1753
1791
1805
1819
1802
1725
1677
1737
1732
1757
1798
1807
1767
1729
1706
1682
1705
1760
1778
1795
1801
1729
1674
1709
1797
1866
1839
1791
1767
1730
1702
1704
1706
1757
1787
1789
1800
1802
1729
1737
1738
1728
1738
1787
1801
1759
1716
1701
1701
1763
1723
1770
1801
1833
1826
1732
1645
1753
1770
1769
1797
1773
1739
1698
1695
1675
1646
1772
1807
1828
1850
1828
1724
1705
1757
1755
1775
1799
1800
1753
1702
1692
1685
1726
1775
1801
1822
1833
1784
1720
1740
1750
1747
1781
1783
1762
1709
1682
1684
1694
1752
1793
1812
1835
1821
1744
1699
1745
1739
1756
1798
1805
1768
1711
1706
1707
1739
1804
1832
1823
1813
1774
1687
1682
1720
1718
1746
1793
1782
1750
1736
1733
1734
1767
1817
1812
1772
1761
1728
1714
1765
1721
1741
1826
1827
1784
1717
1698
1690
1703
1752
1787
1794
1751
1747
1683
1707
1832
1841
1789
1823
1798
1756
1709
1694
1692
1721
1775
1781
1806
1827
1790
1692
1702
1743
1753
1779
1806
1781
1736
1699
1708
1695
1738
1781
1802
1828
1841
1773
1707
1736
1745
1751
1794
1797
1769
1716
1700
1699
1703
1743
1788
1817
1847
1822
1743
1696
1739
1739
1752
1802
1802
1760
1696
1696
1687
1710
1773
1790
1813
1836
1802
1711
1717
1747
1742
1781
1815
1778
1730
1710
1711
1710
1751
1783
1784
1793
1798
1738
1684
1741
1749
1751
1794
1787
1760
1694
1696
1705
1723
1783
1838
1818
1813
1806
1733
1694
1744
1732
1751
1793
1788
1749
1769
1721
1669
1715
1785
1811
1821
1830
1804
1721
1696
1729
1719
1745
1783
1780
1730
1698
1703
1692
1697