2029
2000
2399
3405
3806
3790
3775
3793
608
688
0
0
0
0
2062
2123
2079
2031
2073
2674
3345
3815
3775
3831
1411
620
740
0
0
0
216
2107
2093
2069
2013
2142
2911
3565
3813
3791
3795
752
640
468
0
0
0
1632
2103
2079
2026
2000
2407
3375
3775
3799
3791
3807
601
690
0
0
0
0
2021
2119
2093
2031
2033
2643
3383
3783
3791
3783
1586
592
760
0
0
0
44
2113
2101
2047
2020
2157
2915
3583
3787
3791
3791
777
618
520
0
0
0
1520
2117
2071
2033
1995
2037
3327
3795
3799
3783
3811
626
704
0
0
0
0
2005
2126
2080
2038
1968
2559
3467
3793
3791
3787
1805
600
729
0
0
0
0
2103
2114
2066
2005
2097
2797
3515
3795
3787
3783
832
625
592
0
0
0
1392
2123
2090
2032
2010
2288
3399
3793
3799
3794
3799
624
660
0
0
0
0
1973
2109
2078
2022
1984
2519
3431
3783
3763
3799
1981
609
720
0
0
0
0
2095
2097
2065
2000
2079
2807
3487
3787
3795
3791
864
624
720
0
0
0
1257
2119
2096
2025
2003
2358
3309
3919
3795
3787
3798
610
664
0
0
0
0
1959
2105
2095
2018
2022
2533
3442
3789
3783
3791
2213
600
713
0
0
0
0
2092
2094
2061
2004
2106
2783
3455
3795
3791
3787
923
624
656
0
0
0
1113
2115
2067
2031
2000
1535
644
32
2630
3793
3783
1587
1483
850
0
0
0
2466
2645
2619
2509
2380
2838
3799
3795
3797
3795
2643
841
888
0
0
0
0
2242
2224
2215
2099
2154
2871
3539
3791
3791
3799
1058
684
794
0
0
0
1050
2146
2129
2097
2011
2299
3199
3793
3791
3789
3807
665
677
168
0
0
0
1873
2115
2101
2032
2000
2385
3423
3791
3775
3795
2775
624
701
0
0
0
0
2093
2102
2073
2027
2030
2673
3399
3791
3791
3799
1068
624
768
0
0
0
768
2107
2082
2063
2021
2267
3071
3759
3781
3783
3789
656
652
274
0
0
0
1811
2112
2077
2055
1998
1638
487
0
3795
3783
3795
1469
1490
332
0
0
0
2613
2599
2491
2403
2406
3053
3775
3775
3791
3799
1344
852
929
0
0
0
748
2247
2209
2122
2096
2267
3135
3783
3781
3787
3795
672
713
348
0
0
0
1806
2165
2119
2063
2021
2471
3463
3793
3779
3783
3375
610
712
0
0
0
0
2059
2112
2086
2029
2063
2673
3311
3797
3787
3793
1275
624
738
0
0
0
400
2117
2118
2059
2015
2218
2965
3767
3781
3793
3787
704
656
472
0
0
0
1699
2122
2081
2040
1990
2133
3367
3886
3793
3799
3819
653
716
0
0
0
0
2067
2123
2083
2032
2058
2659
3410
3791
3807
3783
1389
635
741
0
0
0
220
2079
2084
2063
1987
1859
994
256
704
3793
3793
1678
1514
1280
0
0
0
2178
2663
2559
2461
2383
2736
3795
3799
3783
3791
3815
850
914
32
0
0
0
2156
2261
2199
2158
2147
2719
3503
3803
3775
3799
1622
668
773
0
0
0
80
2128
2138
2095
2064
2160
2925
3567
3799
3891
3887
802
645
600
0
0
0
1517
2112
2086
2012
2007
1452
453
0
1102
3791
3807
1731
1711
814
0
0
0
2679
2751
2661
2555
2486
3023
3791
3795
3863
3783
2019
896
976
0
0
0
0
2306
2283
2210
2158
2229
2941
3639
3793
3790
3793
916
730
716
0
0
0
1397
2161
2134
2065
2055
2153
3319
3803
3775
3755
3797
640
688
40
0
0
0
1965
2135
2122
2032
1991
2594
3455
3792
3791
3795
1994
618
717
0
0
0
0
2085
2095
2066
2011
2113
1120
368
0
3791
3803
1990
1684
1601
0
0
0
1866
2766
2609
2554
2478
2651
3755
3797
3791
3793
3807
938
928
346
0
0
0
2113
2285
2259
2225
2069
2667
3503
3793
3775
3787
2352
654
782
0
0
0
0
2129
2167
2107
2063
2159
2815
3527
3795
3791
3799
955
640
740
0
0
0
1110
2128
2098
2047
2021
2192
3207
3793
3807
3795
3799
668
677
118
0
0
0
1906
2127
2099
2035
2039
2530
3431
3871
3773
3783
2545
613
777
0
0
0
0
2082
2109
2023
2015
2065
2751
3399
3799
3787
3795
1011
628
739
0
0
0
936
2101
2035
2057
2021
2287
3155
3795
3795
3795
3807
690
674
240
0
0
0
1834
2111
2099
2064
2000
2502
3367
3795
3775
3783
2887
598
717
0
0
0
0
2078
2033
2073
2017
2059
2625
3263
3787
3787
3773
1122
640
754
0
0
0
786
2110
2034
2060
2021
2175
3029
3639
3783
3793
3799
704
673
308
0
0
0
1811
2113
2108
2064
2000
2422
3462
3783
3791
3799
3219
612
713
0
0
0
0
2070
2115
2086
2021
2077
2657
3327
3839
3773
3795
1226
629
753
0
0
0
657
2121
2090
2080
2001
2210
3047
3619
3787
3783
3799
699
658
361
0
0
0
1721
2126
2123
2045
2017
1584
537
0
3734
3793
3813
1562
1524
484
0
0
0
2625
2611
2603
2443
2413
3015
3631
3799
3791
3779
1553
893
944
0
0
0
552
2267
2235
2227
2111
2247
3005
3666
3825
3787
3795
805
720
448
0
0
0
1762
2165
2206
2111
2019
2370
3341
3807
3799
3791
3795
692
720
0
0
0
0
2063
2129
2160
2038
2000
2661
3327
3791
3783
3793
1462
640
752
0
0
0
272
2109
2096
2114
2017
2169
2903
3407
3783
3783
3783
768
664
520
0
0
0
1654
2116
2112
2007
1999
2374
3323
3783
3791
3797
3803
628
704
0
0
0
0
2030
2109
2178
2033
2019
2559
3199
3783
3791
3799
1648
649
758
0
0
0
148
2115
2103
2119
2019
2127
2819
3345
3799
3790
3767
826
672
560
0
0
0
1608
2126
2126
2079
2000
2395
3323
3783
3795
3791
3799
640
699
0
0
0
0
1999
2094
2236
2047
2000
2535
3219
3799
3795
3799
1793
640
708
0
0
0
0
2113
2099
2191
2018
2111
2759
3327
3791
3775
3791
865
659
680
0
0
0
1514
2123
2091
2079
1994
2282
3219
3687
3791
3781
3799
660
708
16
0
0
0
1984
2127
2202
2103
2002
2595
3319
3799
3791
3791
1991
576
742
0
0
0
0
2095
2093
2202
2020
2087
2726
3215
3797
3795
3795
912
656
746
0
0
0
1389
2131
2079
2096
2006
2271
3191
3663
3783
3791
3803
659
640
290
0
0
0
1962
2106
2175
2047
1991
2533
3295
3799
3859
3791
2235
632
732
0
0
0
0
2096
2096
2162
2030
2032
2671
3186
3791
3797
3791
976
672
720
0
0
0
1328
2131
2103
2117
2003
2207
3174
3527
3793
3767
3795
682
697
192
0
0
0
1939
2115
2137
2081
2001
2463
3251
3799
3795
3795
2555
656
752
0
0
0
0
2115
2128
2127
2046
2083
2647
3171
3795
3789
3787
1049
658
768
0
0
0
1163
2151
2110
2097
2027
2159
2279
1812
3911
3727
3807
1045
1010
458
0
0
0
2135
2335
2320
2263
2183
2599
3445
3795
3793
3783
2897
720
809
0
0
0
0
2161
2161
2205
2044
2112
2662
3167
3783
3787
3791
1166
681
816
0
0
0
1037
2160
2127
2111
2043
2169
3071
3559
3775
3743
3803
720
694
294
0
0
0
1867
2133
2153
2044
2000
2545
3327
3799
3783
3775
3199
624
720
0
0
0
0
2086
2118
2111
2037
2171
2686
3199
3799
3791
3793
1226
676
777
0
0
0
739
2122
2081
2091
1998
2128
2991
3519
3795
3787
3791
712
690
476
0
0
0
1776
2111
2165
2123
1987
2443
3327
3790
3771
3790
3803
624
704
0
0
0
0
2047
2107
2093
2032
1983
2691
3231
3797
3791
3787
1338
618
754
0
0
0
501
2119
2091
2143
2003
2155
2967
3495
3797
3782
3790
720
644
356
0
0
0
1726
2112
2111
2032
1994
2383
3374
3791
3783
3805
3791
628
698
0
0
0
0
2037
2117
2142
2058
2033
2683
3335
3791
3775
3775
1441
617
728
0
0
0
232
2123
2094
2083
2018
2213
2934
3535
3798
3719
3799
757
649
565
0
0
0
1611
2128
2112
2033
2012
2462
3391
3795
3795
3791
3799
608
682
0
0
0
0
2005
2124
2131
2025
2035
2683
3295
3731
3791
3791
1584
596
657
0
0
0
0
2119
2109
2080
2029
2107
2923
3535
3791
3793
3783
784
648
550
0
0
0
1508
2128
2096
2065
2020
2439
3375
3797
3783
3791
3793
627
684
0
0
0
0
1978
2092
2111
2038
2035
2611
3323
3795
3775
3791
1759
592
720
0
0
0
0
2113
2099
2081
2027
2133
2827
3431
3799
3787
3791
842
660
606
0
0
0
1395
2128
2078
2047
2019
2385
3295
3799
3793
3815
3807
622
656
0
0
0
0
1937
2117
2154
2038
1936
1283
576
0
2375
3775
2883
1767
1748
144
0
0
51
2783
2746
2659
2533
2591
3231
3787
3787
3783
3775
1200
917
946
0
0
0
1442
2315
2263
2205
2149
2369
3447
3807
3791
3793
3807
720
753
56
0
0
0
1990
2195
2178
2087
2055
2672
3419
3807
3791
3795
2243
640
729
0
0
0
0
2098
2109
2118
2027
2076
2823
3461
3787
3791
3797
891
624
706
0
0
0
1100
2123
2095
2059
2037
2375
3285
3795
3783
3793
3779
624
654
0
0
0
0
1898
2123
2143
2077
1990
2559
3411
3797
3791
3799
2491
592
689
0
0
0
0
2081
2110
2116
2018
2175
2783
3387
3783
3787
3791
989
618
728
0
0
0
900
2126
2006
2038
2029
2301
3215
3799
3791
3775
3803
652
634
128
0
0
0
1840
2148
2114
2047
2000
2559
3503
3775
3799
3791
2783
577
692
0
0
0
0
2069
2112
2101
2023
1858
2769
3471
3767
3797
3803
1072
604
736
0
0
0
656
2073
2093
2042
2010
1946
3163
3799
3821
3799
3799
678
649
208
0
0
0
1798
2139
2107
2055
2015
2519
3487
3793
3798
3771
3071
597
624
0
0
0
0
2055
2103
2078
2032
2058
2731
3471
3783
3799
3799
1136
610
740
0
0
0
506
2121
2107
2061
2022
1714
672
109
3483
3791
3775
1503
1412
909
0
0
0
2239
2595
2535
2426
2333
1632
608
0
3791
3799
3815
1703
1635
461
0
0
0
2703
2707
2619
2505
2449
3111
3791
3793
3807
3791
1462
841
1002
0
0
0
588
2303
2286
2198
2155
2303
3183
3807
3787
3787
3799
784
730
388
0
0
0
1763
2171
2141
2070
2033
2523
3517
3799
3791
3799
3796
616
708
0
0
0
0
2045
2117
2039
2035
2074
2719
3455
3791
3787
3795
1280
603
722
0
0
0
242
2095
2119
2017
2037
2143
3051
3799
3767
3787
3807
705
554
362
0
0
0
1651
2160
2087
2043
2005
2498
3477
3793
3791
3787
3803
592
673
0
0
0
0
2064
2108
2057
2026
2039
2627
3455
3819
3799
3795
1297
592
714
0
0
0
160
2096
2094
2047
2029
2154
3045
3767
3791
3791
3807
696
626
480
0
0
0
1535
2127
2075
2005
1984
2367
3471
3791
3791
3775
3807
580
672
0
0
0
0
2000
2093
2064
2002
2067
2679
3398
3799
3825
3791
1472
592
710
0
0
0
64
2109
2109
2039
2074
2130
2973
3633
3795
3791
3793
752
630
484
0
0
0
1557
2105
2071
2034
1987
2418
3367
3791
3779
3775
3795
616
669
0
0
0
0
1995
2096
2079
2006
2000
2654
3391
3795
3789
3793
1616
608
704
0
0
0
0
2108
2107
2055
2017
1883
2903
3687
3791
3799
3815
786
646
528
0
0
0
1472
2113
2087
2045
2015
2407
3415
3799
3783
3839
3799
608
665
0
0
0
0
1973
2111
2071
2059
1954
2629
3435
3787
3775
3793
1746
618
706
0
0
0
0
2093
2096
2045
2025
2109
2865
3567
3711
3791
3781
800
620
546
0
0
0
1385
2126
2103
2043
2007
2299
3367
3794
3793
3783
3795
624
668
0
0
0
0
1968
2103
2087
2034
1993
2559
3439
3791
3787
3797
1936
612
753
0
0
0
0
2097
2095
2060
2026
2095
2815
3557
3791
3803
3807
850
620
625
0
0
0
1255
2124
2094
2035
2002
2321
3321
3839
3779
3783
3783
629
648
56
0
0
0
1918
2130
2090
2031
1990
1303
448
0
3795
3739
2893
1617
1610
208
0
0
0
2703
2673
2545
2467
2493
3261
3807
3803
3807
3793
1169
879
885
0
0
0
1257
2291
2193
2183
2145
2391
3406
3791
3775
3815
3803
696
738
113
0
0
0
1936
2125
2106
2096
2047
2591
3533
3797
3775
3791
2391
632
728
0
0
0
0
2099
2094
2074
2015
1979
2800
3507
3883
3799
3791
984
616
726
0
0
0
910
2130
2099
2111
2025
2273
3281
3775
3803
3799
3803
660
658
128
0
0
0
1855
2129
2080
2032
2009
2506
3447
3807
3775
3795
2687
588
704
0
0
0
0
2078
2099
2079
2032
2108
2735
3415
3799
3793
3775
1051
625
726
0
0
0
700
2134
2098
2032
2013
2175
628
32
0
3791
3799
1842
1732
1128
0
0
0
2513
2800
2694
2582
2495
2987
3797
3783
3799
3783
3159
874
976
0
0
0
0
2239
2295
2231
2161
2191
2883
3531
3799
3789
3799
1202
662
800
0
0
0
616
2183
2129
2099
2059
2391
3215
3827
3795
3791
3807
710
656
256
0
0
0
1758
2156
2142
2093
2021
2512
3423
3791
3775
3779
3262
576
704
0
0
0
0
2055
2095
2090
2015
2103
2695
3435
3787
3775
3791
1196
619
722
0
0
0
400
2126
2115
2047
2015
2239
3155
3799
3791
3771
3791
674
634
208
0
0
0
1767
2125
2106
2045
2011
2455
3487
3783
3791
3775
3387
604
686
0
0
0
0
2038
2095
2128
2030
2043
2670
3279
3783
3795
3793
1283
617
736
0
0
0
272
2123
2118
2045
2000
2261
3118
3791
3791
3783
3783
682
642
336
0
0
0
1652
2126
2109
1993
2010
2350
3471
3795
3783
3787
3803
586
681
0
0
0
0
2035
2119
2129
2038
2061
2711
3365
3775
3793
3799
1354
602
720
0
0
0
128
2102
2095
2073
2013
2238
2995
3671
3791
3783
3761
717
648
352
0
0
0
1620
2112
2023
2043
2003
2363
3343
3805
3791
3795
3827
568
704
0
0
0
0
2023
2126
2121
2032
1999
2499
3347
3795
3791
3791
1535
648
756
0
0
0
83
2140
2119
2095
2031
2212
3007
3527
3799
3775
3795
772
656
428
0
0
0
1572
2151
2123
2061
2015
2397
3349
3799
3775
3787
3803
624
704
0
0
0
0
2025
2123
2131
2064
2031
2687
3311
3791
3791
3803
1598
620
737
0
0
0
0
2115
2111
2155
2022
2150
2903
3471
3798
3797
3803
784
646
496
0
0
0
1517
2130
2083
2064
2007
2387
3347
3787
3775
3799
3797
640
710
0
0
0
0
2001
2133
2130
2071
2021
2604
3275
3895
3791
3795
1728
613
738
0
0
0
0
2126
2130
2141
2027
1755
1008
420
0
3797
3787
1815
1605
1326
0
0
0
2095
2714
2635
2523
2421
1989
885
266
2641
3783
3797
1847
1779
829
0
0
0
2751
2815
2774
2608
2514
2997
3795
3797
3793
3791
2134
934
1034
0
0
0
0
2317
2279
2279
2181
2269
2941
3435
3797
3795
3791
923
752
656
0
0
0
1463
2197
2149
2119
2086
2415
3355
3798
3775
3783
3807
662
721
0
0
0
0
1986
2143
2217
2095
2025
2547
3310
3791
3787
3783
1969
617
728
0
0
0
0
2111
2103
2165
2032
2127
2847
3379
3799
3791
3783
873
634
616
0
0
0
1310
2131
2095
2074
1999
2274
3255
3791
3791
3793
3811
656
696
16
0
0
0
1963
2143
2128
2097
2007
2615
3342
3799
3791
3775
2149
634
722
0
0
0
0
2118
2045
2127
2037
2066
2765
3347
3799
3791
3787
919
645
657
0
0
0
1280
2133
2102
2079
2007
2253
3229
3793
3791
3791
3806
656
694
40
0
0
0
1942
2131
2128
2062
2010
2559
3363
3799
3787
3795
2309
608
722
0
0
0
0
2093
2111
2150
2039
2167
2754
3303
3791
3789
3795
977
640
704
0
0
0
1167
2139
2095
2069
2015
2327
3214
3771
3799
3793
3807
654
681
160
0
0
0
1899
2115
2186
2065
1995
2533
3343
3793
3791
3803
2501
624
723
0
0
0
0
2097
2113
2179
2010
2118
2743
3318
3791
3787
3799
1005
628
680
0
0
0
1045
2147
2096
2111
2027
2318
3213
3711
3793
3795
3792
667
681
132
0
0
0
1891
2128
2160
2075
1936
2543
3371
3789
3799
3799
2643
608
716
0
0
0
0
2095
2126
2157
2029
2043
2723
3295
3783
3789
3791
1072
628
752
0
0
0
939
2131
2101
2089
2022
2343
3194
3661
3799
3794
3795
682
666
162
0
0
0
1873
2137
2134
2095
1998
2527
3345
3807
3791
3793
2958
624
714
0
0
0
0
2086
2113
2119
2033
2058
2705
3251
3775
3781
3799
1104
641
752
0
0
0
784
2128
2111
2085
2023
1805
778
278
919
3793
3791
1690
1589
1065
0
0
0
2427
2735
2635
2559
2399
2854
3743
3799
3797
3791
3271
868
912
0
0
0
0
2243
2243
2263
2179
2175
2787
3403
3787
3791
3797
1214
704
814
0
0
0
714
2175
2101
2143
2047
2310
3155
3615
3791
3783
3791
750
705
219
0
0
0
1814
2149
2143
2115
2014
2523
3327
3805
3799
3791
3275
654
710
0
0
0
0
2091
2127
2143
2033
2042
2703
3283
3799
3791
3791
1221
646
752
0
0
0
572
2127
2103
2096
2011
2269
3119
3664
3787
3783
3799
704
661
256
0
0
0
1774
2115
2113
2099
1998
2495
3409
3795
3791
3791
3375
594
692
0
0
0
0
2061
2112
2193
2059
2090
2635
3286
3799
3799
3791
1266
624
720
0
0
0
448
2115
2101
2111
2015
2155
3095
3583
3775
3795
3791
728
658
368
0
0
0
1744
2131
2113
2083
2003
2458
3379
3799
3775
3787
3791
630
720
0
0
0
0
2066
2105
2161
2037
2064
2670
3291
3799
3787
3794
1328
624
726
0
0
0
364
2123
2113
2100
2017
1874
3051
3519
3795
3783
3799
768
672
352
0
0
0
1719
2143
2156
2102
2023
2481
3390
3799
3783
3783
3791
631
690
0
0
0
0
2037
2117
2177
2047
2099
2703
3295
3787
3775
3791
1382
617
738
0
0
0
240
2118
2099
2111
2022
2141
2927
3447
3797
3791
3795
756
657
408
0
0
0
1648
2146
2125
2112
2015
2407
3423
3779
3787
3790
3815
624
696
0
0
0
0
2023
2126
2143
2061
2077
2673
3251
3935
3791
3787
1444
630
728
0
0
0
148
2127
2110
2123
2030
1883
922
408
1395
3783
3791
1653
1485
1130
0
0
0
2175
2669
2593
2495
2379
2735
3719
3795
3799
3793
3807
858
880
0
0
0
0
2187
2256
2303
2181
2127
2727
3391
3795
3787
3783
1589
669
784
0
0
0
144
2159
2111
2138
2039
2305
2987
3503
3797
3787
3783
776
660
441
0
0
0
1620
2139
2159
2110
2023
2445
3439
3795
3791
3791
3787
632
697
0
0
0
0
2037
2117
2163
2035
2026
2655
3223
3787
3793
3783
1595
624
725
0
0
0
64
2150
2087
2181
2007
2128
2897
3455
3799
3855
3711
756
641
432
0
0
0
1535
2111
2111
2087
2000
2447
3327
3789
3793
3791
3799
628
689
0
0
0
0
2007
2129
2161
2064
2086
2701
3319
3787
3789
3791
1645
594
736
0
0
0
0
2101
2096
2155
2019
1715
904
422
0
3789
3783
1808
1590
1316
0
0
0
2098
2735
2631
2519
2431
2851
3775
3795
3794
3779
3803
886
932
104
0
0
0
2163
2282
2291
2199
2147
2723
3354
3793
3719
3791
1829
688
800
0
0
0
0
2165
2158
2187
2047
2167
2879
3397
3795
3781
3781
852
656
605
0
0
0
1456
2161
2113
2081
2023
2343
3319
3789
3803
3789
3795
688
700
0
0
0
0
2013
2145
2164
2085
2044
2651
3351
3791
3799
3799
1856
624
734
0
0
0
0
2112
2094
2186
2039
2160
2879
3407
3797
3791
3775
880
656
584
0
0
0
1416
2141
2110
2066
2000
2421
3315
3795
3795
3711
3807
640
694
0
0
0
0
1883
2129
2128
2077
2047
2643
3311
3795
3729
3793
1936
610
720
0
0
0
0
2096
2109
2176
2042
2114
2865
3359
3787
3795
3789
860
640
587
0
0
0
1332
2134
2103
2090
2005
2257
3351
3803
3793
3779
3799
624
680
0
0
0
0
1958
2123
2175
2091
1966
1202
525
0
3799
3791
2773
1605
1610
0
0
0
0
2726
2663
2690
2464
2531
3248
3783
3791
3795
3805
1136
880
916
0
0
0
1457
2297
2256
2222
2123
2497
3403
3787
3787
3783
3807
714
733
105
0
0
0
1991
2157
2190
2099
2031
2623
3285
3799
3793
3795
2169
636
740
0
0
0
0
2125
2131
2160
2045
2127
2847
3391
3795
3787
3793
904
642
601
0
0
0
1245
2155
2125
2089
2021
2448
3327
3783
3783
3787
3807
640
666
0
0
0
0
1929
2117
2183
2085
1989
2619
3343
3807
3782
3783
2199
587
720
0
0
0
0
2096
2115
2112
2021
1936
1006
448
0
3791
3797
1984
1654
1482
0
0
0
1770
2763
2663
2583
2483
2736
3791
3757
3783
3783
3803
942
918
196
0
0
0
2115
2288
2306
2238
2146
2782
3575
3783
3775
3775
2351
660
768
0
0
0
0
2125
2151
2326
2059
2160
2881
3451
3797
3791
3779
960
630
778
0
0
0
973
2128
2093
2095
2014
2379
3287
3797
3789
3791
3799
634
668
0
0
0
0
1875
2141
2135
2102
2013
2691
3397
3797
3791
3791
2559
588
688
0
0
0
0
2091
2111
2150
2030
2115
2831
3341
3791
3793
3783
987
620
640
0
0
0
944
2133
2108
2105
2013
2410
3231
3791
3807
3787
3799
656
659
9
0
0
0
1867
2128
2186
2119
2000
2594
3327
3799
3791
3795
2655
608
704
0
0
0
0
2102
2114
2159
2055
2133
2798
3351
3803
3798
3787
1038
642
688
0
0
0
880
2149
2113
2115
2026
2359
3278
3807
3795
3791
3807
657
656
16
0
0
0
1856
2135
2166
2094
2010
2581
3391
3807
3775
3787
2753
608
704
0
0
0
0
2077
2123
2191
2045
2207
2815
3355
3795
3775
3795
1051
608
738
0
0
0
728
2141
2096
2065
2019
2311
3231
3789
3791
3783
3795
651
652
48
0
0
0
1839
2129
2175
2111
1995
2191
3319
3799
3775
3795
2902
611
704
0
0
0
0
2096
2128
2128
2057
1943
2812
3387
3799
3779
3775
1088
624
648
0
0
0
756
2142
2106
2095
2032
2377
3239
3759
3787
3795
3815
664
659
64
0
0
0
1833
2150
2217
2148
2014
2614
3363
3791
3794
3799
2947
588
690
0
0
0
0
2071
2121
2135
2043
2167
2799
3339
3791
3787
3775
1073
608
688
0
0
0
641
2129
2119
2096
2019
2423
3255
3757
3787
3783
3793
656
649
160
0
0
0
1791
2112
2181
2109
1987
1236
528
0
3791
3795
3803
1435
1440
52
0
0
0
2607
2610
2641
2407
2338
3071
3583
3783
3783
3791
1367
824
897
0
0
0
693
2281
2243
2198
2135
2437
3255
3791
3783
3791
3791
749
717
177
0
0
0
1821
2171
2195
2150
2042
2623
3408
3794
3791
3789
3195
618
724
0
0
0
0
2095
2141
2151
2065
2157
2749
3303
3787
3783
3799
1178
624
749
0
0
0
464
2140
2111
2119
1986
2058
3119
3727
3791
3783
3791
712
682
100
0
0
0
1777
2155
2162
2143
2023
2527
3431
3795
3791
3791
3211
608
720
0
0
0
0
2096
2139
2213
2043
2047
2739
3308
3795
3795
3797
1197
621
752
0
0
0
480
2135
2115
2099
2025
2320
3133
3647
3795
3795
3815
702
650
208
0
0
0
1750
2160
2201
2125
2007
2559
3377
3798
3775
3791
3299
596
700
0
0
0
0
2063
2122
2160
2007
1922
1157
624
0
3795
3799
2121
1563
1580
0
0
0
912
2735
2647
2559
2375
2751
3647
3793
3795
3791
3805
942
909
360
0
0
0
1939
2293
2291
2241
2130
2670
3455
3791
3791
3791
3375
672
762
0
0
0
0
2113
2175
2235
2111
2145
2786
3359
3790
3794
3791
1238
624
752
0
0
0
432
2133
2123
2151
2027
2387
3167
3691
3795
3793
3790
686
640
184
0
0
0
1746
2133
2159
2124
2007
2539
3403
3791
3783
3803
3391
586
696
0
0
0
0
2064
2119
2211
2067
2134
2779
3277
3783
3775
3767
1232
617
728
0
0
0
364
2138
2115
2129
2015
2112
3247
3697
3799
3791
3791
683
656
240
0
0
0
1742
2134
2171
2124
2011
2559
3343
3791
3895
3797
3405
608
704
0
0
0
0
2069
2129
2243
2055
2046
2799
3301
3775
3815
3807
1234
598
712
0
0
0
376
2133
2112
2139
2026
1584
738
312
2512
3791
3791
1583
1454
940
0
0
0
2263
2643
2603
2591
2347
2897
3759
3795
3787
3783
3807
823
882
0
0
0
0
2187
2237
2315
2173
1914
2783
3311
3799
3791
3791
1349
684
801
0
0
0
384
2179
2145
2193
2055
2349
3150
3559
3807
3783
3811
724
672
224
0
0
0
1714
2150
2178
2111
2014
2559
3375
3795
3791
3775
3791
603
693
0
0
0
0
2047
2130
2345
2059
2095
2719
3239
3787
3795
3795
1301
620
728
0
0
0
336
2119
2112
2111
2027
2291
3121
3527
3786
3827
3791
717
656
202
0
0
0
1747
2135
2167
2111
2011
2513
3343
3791
3775
3781
3405
610
696
0
0
0
0
2082
2128
2243
2038
2093
2703
3295
3791
3783
3783
1240
608
770
0
0
0
352
2145
2100
2112
2030
2239
3088
3575
3795
3775
3799
707
656
320
0
0
0
1615
2128
2231
2121
1987
2531
3407
3795
3783
3787
3423
608
704
0
0
0
0
2063
2128
2205
2046
2041
2753
3310
3795
3795
3791
1266
614
736
0
0
0
332
2129
2111
2113
2015
2220
3127
3653
3791
3791
3805
700
642
256
0
0
0
1723
2132
2138
2123
2009
2523
3431
3793
3807
3795
3803
592
690
0
0
0
0
2047
2132
2160
2055
2117
2693
3235
3791
3787
3775
1280
624
736
0
0
0
332
2143
2119
2130
2031
2226
3159
3675
3799
3793
3803
704
642
192
0
0
0
1710
2127
2131
2086
2021
2519
3391
3803
3795
3795
3805
596
689
0
0
0
0
2031
2147
2160
2053
2098
2807
3326
3787
3783
3789
1264
597
720
0
0
0
332
2139
2107
2085
2019
1630
753
288
704
3791
3793
1727
1591
1090
0
0
0
2331
2727
2671
2547
2418
2868
3759
3798
3787
3795
3803
880
944
0
0
0
0
2224
2288
2341
2193
2180
2875
3383
3799
3795
3799
1358
674
803
0
0
0
313
2175
2161
2148
2064
2370
3215
3677
3790
3725
3775
730
656
312
0
0
0
1692
2143
2167
2096
2015
2559
3375
3791
3795
3791
3795
616
706
0
0
0
0
2063
2118
2191
2070
2123
2767
3279
3791
3791
3791
1293
616
780
0
0
0
308
2128
2079
2175
2015
2268
3115
3691
3783
3787
3791
698
652
332
0
0
0
1670
2134
2157
2102
1999
2605
3435
3791
3791
3792
3783
592
682
0
0
0
0
2047
2112
2179
2063
2087
2345
3295
3793
3791
3793
1348
642
769
0
0
0
342
2163
2143
2133
2047
1698
3199
3711
3779
3791
3795
748
677
200
0
0
0
1725
2154
2176
2115
2027
2534
3415
3799
3787
3787
3791
608
696
0
0
0
0
2067
2135
2199
2083
2111
2755
3327
3791
3783
3793
1308
608
762
0
0
0
256
2128
2111
2109
2019
2303
3122
3559
3791
3807
3803
729
648
260
0
0
0
1680
2143
2133
2094
2015
2543
3399
3799
3823
3823
3803
608
688
0
0
0
0
2055
2114
2126
2058
2059
2769
3283
3793
3789
3783
1306
603
748
0
0
0
281
2127
2107
2113
2019
2327
3123
3583
3797
3791
3815
705
646
260
0
0
0
1680
2143
2188
2105
2019
2063
3414
3799
3783
3783
3807
630
730
0
0
0
0
2079
2158
2204
2073
2083
2747
3409
3793
3799
3793
1245
620
728
0
0
0
258
2147
2109
2105
2032
2355
3175
3761
3803
3795
3791
684
630
208
0
0
0
1641
2138
2129
2098
2003
2384
3415
3795
3779
3797
3799
602
688
0
0
0
0
2047
2123
2187
2047
2038
2783
3359
3795
3791
3775
1286
604
745
0
0
0
180
2131
2115
2115
2032
2289
3099
3491
3783
3791
3799
720
652
244
0
0
0
1644
2139
2207
2133
1941
1308
514
21
3791
3787
3807
1379
1383
112
0
0
0
2544
2591
2595
2419
2418
3023
3633
3789
3783
3783
1552
811
913
0
0
0
272
2287
2239
2237
2130
2426
3259
3797
3783
3775
3793
774
698
232
0
0
0
1664
2174
2198
2162
2028
2531
3461
3807
3795
3781
3791
612
688
0
0
0
0
2047
2157
2213
2071
2068
2751
3367
3794
3791
3791
1372
614
738
0
0
0
176
2145
2125
2125
2035
2257
3159
3639
3791
3783
3803
724
645
260
0
0
0
1651
2131
2160
2135
2001
2559
3435
3807
3799
3795
3823
592
672
0
0
0
0
2032
2128
2131
2055
1875
1210
659
0
3799
3799
2326
1683
1663
0
0
0
768
2801
2706
2637
2499
2751
3583
3799
3797
3803
3799
992
909
420
0
0
0
1859
2325
2325
2261
2147
2719
3523
3791
3799
3783
3719
674
748
0
0
0
0
2103
2171
2218
2103
2139
2811
3347
3791
3783
3799
1312
618
745
0
0
0
280
2139
2127
2133
2039
2319
3199
3743
3791
3775
3815
704
643
208
0
0
0
1683
2127
2155
2098
2006
2559
3347
3791
3791
3791
3799
597
691
0
0
0
0
2065
2123
2154
2047
2118
2779
3310
3793
3791
3791
1284
608
722
0
0
0
304
2128
2128
2125
2022
2351
3195
3751
3791
3783
3806
688
624
194
0
0
0
1671
2128
2146
2128
1997
2523
3373
3791
3783
3791
3807
600
688
0
0
0
0
2071
2131
2149
2047
1839
1128
568
0
3795
3794
2140
1508
1553
0
0
0
688
2693
2615
2544
2443
2293
3607
3799
3811
3803
3783
966
880
378
0
0
0
1859
2297
2289
2242
2131
2641
3537
3791
3783
3775
3803
664
745
0
0
0
0
2129
2191
2259
2112
2133
2863
3379
3799
3795
3791
1280
620
704
0
0
0
312
2145
2123
2159
2047
2275
3223
3711
3807
3795
3799
707
652
169
0
0
0
1707
2151
2178
2115
2006
2559
3427
3815
3815
3775
3797
608
652
0
0
0
0
2064
2128
2247
2059
2112
2787
3311
3799
3794
3791
1269
621
729
0
0
0
320
2130
2127
2115
2029
2256
3231
3774
3795
3799
3795
684
670
144
0
0
0
1701
2145
2170
2098
2001
2605
3391
3789
3799
3878
3419
584
670
0
0
0
0
2044
2119
2189
2045
2089
2807
3359
3783
3791
3795
1245
585
750
0
0
0
281
2128
2112
2119
2027
2295
3215
3774
3783
3793
3795
690
624
138
0
0
0
1774
2131
2161
2085
2021
2559
3415
3791
3793
3793
3395
592
678
0
0
0
0
2029
2119
2231
2047
2064
2719
3287
3791
3775
3783
1244
608
736
0
0
0
302
2135
2127
2116
2047
1587
640
202
3102
3791
3791
1569
1433
840
0
0
0
2225
2647
2626
2559
2349
2929
3783
3807
3791
3797
3795
808
880
0
0
0
0
2203
2255
2311
2159
2198
2910
3439
3787
3783
3791
1280
664
756
0
0
0
360
2161
2155
2153
2062
2423
3239
3775
3791
3775
3790
689
656
128
0
0
0
1741
2159
2239
2143
2000
2646
3399
3791
3775
3799
3373
585
692
0
0
0
0
2063
2130
2197
2047
2141
2829
3359
3783
3793
3793
1218
592
692
0
0
0
372
2141
2119
2135
2013
2415
3279
3791
3783
3781
3799
656
632
134
0
0
0
1715
2128
2207
2114
2011
2608
3463
3799
3791
3791
3278
582
688
0
0
0
0
2067
2118
2209
2058
2129
2771
3263
3791
3799
3799
1221
609
749
0
0
0
432
2145
2112
2112
2016
2419
3219
3731
3783
3791
3791
688
643
176
0
0
0
1746
2142
2233
2132
1885
2535
3403
3799
3789
3775
3295
605
731
0
0
0
0
2077
2128
2214
2078
1787
1053
544
0
3783
3795
2157
1598
1623
0
0
0
932
2771
2667
2639
2461
2703
3725
3791
3787
3783
3795
936
892
260
0
0
0
1936
2334
2411
2320
2128
1328
592
0
3783
3785
3759
1610
1604
144
0
0
0
2721
2715
2823
2503
2529
3219
3807
3791
3807
3791
1417
866
1001
0
0
0
680
2299
2266
2227
2141
2503
3359
3793
3789
3791
3815
706
704
144
0
0
0
1827
2167
2206
2160
2043
2693
3519
3794
3795
3795
2990
581
688
0
0
0
0
2081
2128
2193
2073
2099
2775
3363
3799
3799
3791
1128
617
749
0
0
0
601
2160
2128
2125
2031
2399
3254
3787
3807
3795
3819
658
648
96
0
0
0
1785
2130
2153
2123
2001
2687
3503
3793
3791
3783
2981
584
678
0
0
0
0
2063
2111
2251
2064
2037
2864
3411
3807
3791
3791
1074
592
617
0
0
0
610
2130
2105
2110
2006
2378
3279
3791
3791
3795
3807
640
631
16
0
0
0
1805
2127
2190
2127
2002
2641
3383
3791
3787
3793
2959
592
688
0
0
0
0
2076
2107
2192
2043
2160
2843
3355
3791
3791
3909
1084
592
763
0
0
0
624
2131
2103
2091
2027
2407
3335
3799
3805
3795
3795
640
628
10
0
0
0
1808
2131
2176
2101
2025
2653
3411
3795
3783
3794
2927
579
682
0
0
0
0
2071
2118
2182
2043
2127
2899
3355
3791
3787
3775
1059
592
752
0
0
0
628
2129
2108
2129
1962
1436
489
84
3131
3795
3793
1535
1456
736
0
0
0
2335
2663
2669
2606
2335
3059
3795
3795
3795
3791
3119
820
884
0
0
0
0
2211
2246
2378
2154
2227
2987
3503
3787
3775
3787
1088
673
832
0
0
0
727
2165
2129
2139
2031
2430
3383
3803
3799
3791
3799
640
656
106
0
0
0
1819
2129
2262
2132
1939
2235
3323
3799
3799
3791
2999
625
728
0
0
0
0
2117
2173
2289
2097
2205
2897
3347
3791
3783
3795
1092
612
814
0
0
0
653
2098
2097
2106
2019
2447
3344
3790
3789
3791
3799
642
640
0
0
0
0
1824
2128
2223
2157
2007
2663
3395
3791
3791
3775
2899
580
680
0
0
0
0
2078
2113
2325
2032
2183
2899
3367
3791
3783
3791
1056
581
672
0
0
0
732
2115
2096
2113
2005
2423
3363
3797
3793
3787
3799
620
640
0
0
0
0
1818
2133
2199
2137
2013
2641
3317
3803
3799
3791
2865
578
691
0
0
0
0
2091
2127
2224
2032
2215
2850
3379
3793
3791
3791
1045
604
777
0
0
0
658
2141
2123
2107
2018
2455
3403
3795
3791
3791
3791
622
624
0
0
0
0
1839
2143
2174
2131
1991
2640
3315
3806
3787
3783
2798
592
696
0
0
0
0
2096
2134
2194
2047
2016
2879
3351
3797
3791
3799
1062
628
545
0
0
0
788
2223
2119
2147
2015
1903
3279
3787
3797
3791
3799
690
690
0
0
0
0
1873
2177
2207
2148
2003
1264
570
0
3789
3775
3377
1552
1535
0
0
0
0
2701
2659
2723
2483
2591
3259
3797
3791
3795
3783
1273
848
848
0
0
0
899
2295
2259
2239
2131
2545
3415
3791
3783
3791
3803
721
710
0
0
0
0
1890
2181
2276
2160
2079
2667
3333
3795
3783
3791
2743
624
721
0
0
0
0
2112
2158
2307
2061
2203
2929
3419
3791
3787
3791
1012
610
786
0
0
0
784
2155
2126
2122
2013
2395
3379
3799
3794
3799
3799
622
644
0
0
0
0
1851
2143
2177
2192
2000
2663
3335
3794
3783
3791
2669
584
698
0
0
0
0
2097
2127
2186
2064
1964
1050
468
0
3795
3798
1939
1514
1517
0
0
0
1321
2709
2631
2581
2421
2800
3787
3791
3798
3783
3794
884
880
194
0
0
0
2000
2285
2310
2243
2129
2833
3471
3791
3791
3799
2614
632
749
0
0
0
0
2114
2165
2222
2078
2300
2995
3511
3799
3727
3791
972
612
816
0
0
0
816
2167
2115
2110
2015
2459
3415
3791
3791
3791
3807
612
632
0
0
0
0
1842
2128
2203
2163
2027
2705
3335
3791
3791
3793
2523
616
683
0
0
0
0
2112
2128
2202
2038
2231
2943
3455
3797
3791
3783
950
592
621
0
0
0
816
2143
2111
2095
2026
2473
3387
3795
3795
3791
3793
613
640
0
0
0
0
1846
2129
2181
2075
1935
1181
469
0
3199
3787
3250
1620
1698
0
0
0
0
2799
2767
2791
2551
2661
3423
3795
3791
3793
3803
1238
890
885
0
0
0
1014
2338
2279
2224
2151
2691
3607
3799
3797
3783
3751
690
720
0
0
0
0
1906
2186
2247
2143
2112
2765
3455
3791
3787
3791
2420
592
698
0
0
0
0
2089
2119
2160
2018
2287
2961
3583
3791
3781
3799
930
577
604
0
0
0
832
2149
2115
2077
2017
2531
3442
3791
3787
3795
3839
592
640
0
0
0
0
1851
2095
2238
2158
2061
2743
3439
3795
3791
3793
2374
560
650
0
0
0
0
2070
2121
2192
1989
2161
2973
3639
3803
3803
3791
886
586
420
0
0
0
834
2130
2103
2099
2019
2526
3503
3793
3793
3767
3807
589
612
0
0
0
0
1849
2128
2155
2045
2089
2743
3367
3807
3794
3793
2294
560
640
0
0
0
0
2107
2095
2120
2031
2228
3011
3669
3803
3795
3781
890
580
474
0
0
0
912
2138
2127
2096
2001
1382
336
0
3783
3807
3807
1503
1454
505
0
0
0
2435
2661
2625
2507
2447
3111
3794
3799
3789
3787
2366
808
876
0
0
0
0
2247
2259
2240
2159
2223
3187
3795
3795
3783
3789
928
650
490
0
0
0
1008
2181
2154
2135
2063
2544
3535
3787
3815
3791
3807
618
665
0
0
0
0
1897
2151
2222
2096
2012
2803
3423
3787
3783
3799
2175
577
685
0
0
0
0
2096
2122
2153
2032
2160
3046
3645
3791
3795
3793
866
600
500
0
0
0
1008
2138
2129
2126
2018
1844
1092
2295
3795
3791
3807
1056
1042
64
0
0
0
2197
2407
2467
2330
2255
2951
3583
3789
3795
3807
2219
680
788
0
0
0
0
2191
2189
2243
2095
2239
3095
3813
3799
3787
3787
897
624
576
0
0
0
1051
2171
2155
2142
1968
1466
458
0
3339
3775
3805
1594
1530
549
0
0
0
2495
2711
2698
2515
2469
3119
3801
3801
3791
3791
2308
818
908
0
0
0
0
2265
2287
2327
2171
2384
3167
3787
3783
3783
3795
896
656
988
0
0
0
1077
2175
2201
2122
2038
2559
3543
3795
3797
3775
3795
592
645
0
0
0
0
1915
2133
2186
2084
2064
2751
3391
3795
3791
3803
2017
564
688
0
0
0
0
2112
2119
2173
2032
2343
3087
3696
3783
3795
3793
816
584
368
0
0
0
1058
2150
2141
2099
2031
2125
3499
3793
3783
3791
3799
608
665
0
0
0
0
1948
2166
2256
2127
2149
2807
3499
3793
3787
3775
1982
560
680
0
0
0
0
2111
2131
2143
2043
2331
3123
3711
3793
3783
3795
816
592
672
0
0
0
1093
2123
2118
2133
2027
2545
3515
3791
3781
3783
3791
560
625
0
0
0
0
1879
2119
2175
2062
2105
2829
3535
3791
3807
3795
1819
520
657
0
0
0
0
2075
2105
2112
2027
1857
3103
3795
3807
3793
3783
817
609
400
0
0
0
1154
2151
2162
2132
2027
2591
3583
3791
3791
3789
3799
580
650
0
0
0
0
1930
2137
2193
2099
2112
2827
3495
3783
3791
3799
1806
564
662
0
0
0
0
2112
2114
2106
2064
1794
722
216
2013
3795
3783
1717
1469
1081
0
0
0
1749
2695
2645
2551
2415
2958
3799
3803
3793
3791
3799
816
859
0
0
0
0
2091
2267
2275
2195
2205
2911
3567
3795
3791
3783
1776
598
720
0
0
0
0
2154
2158
2171
2063
2383
3239
3799
3795
3791
3789
752
603
257
0
0
0
1321
2129
2151
2145
2007
2640
3523
3799
3797
3795
3807
568
648
0
0
0
0
1962
2125
2179
2064
2085
2813
3367
3791
3775
3775
1664
576
672
0
0
0
0
2125
2121
2135
2025
1631
729
236
2767
3785
3783
1629
1405
1026
0
0
0
1877
2667
2625
2537
2381
2915
3807
3803
3793
3787
3799
794
853
0
0
0
0
2147
2288
2330
2192
2267
2911
3494
3793
3787
3783
1663
640
760
0
0
0
0
2155
2155
2166
2055
2385
3231
3807
3787
3781
3787
750
618
292
0
0
0
1398
2129
2163
2150
2009
2608
3475
3799
3799
3789
3799
570
640
0
0
0
0
1997
2141
2179
2085
2097
2811
3317
3795
3791
3787
1535
584
693
0
0
0
0
2131
2115
2133
2027
1553
704
256
2791
3795
3767
1607
1413
1088
0
0
0
1968
2653
2622
2551
2369
2925
3791
3793
3919
3791
3799
800
850
0
0
0
0
2159
2263
2335
2175
2278
2957
3543
3799
3799
3795
1521
624
768
0
0
0
0
2165
2162
2177
2067
1535
707
332
1616
3789
3807
1705
1520
1068
0
0
0
2103
2705
2747
2627
2406
3055
3799
3795
3793
3767
3799
832
888
0
0
0
0
2178
2283
2417
2255
2203
2853
3383
3799
3793
3791
1519
644
770
0
0
0
0
2154
2129
2230
2037
2403
3230
3667
3791
3791
3799
730
624
188
0
0
0
1569
2139
2173
2165
2010
2549
3423
3803
3791
3791
3799
588
672
0
0
0
0
2031
2129
2277
2096
2160
2800
3255
3799
3775
3799
1406
586
716
0
0
0
80
2129
2114
2151
2032
2334
3231
3719
3799
3807
3793
688
608
282
0
0
0
1593
2130
2178
2215
1989
2674
3447
3791
3783
3783
3821
564
656
0
0
0
0
2023
2121
2327
2078
2095
2749
3279
3807
3799
3791
1330
579
721
0
0
0
145
2128
2126
2157
2023
2374
3271
3667
3799
3787
3793
688
624
128
0
0
0
1617
2128
2192
2173
2078
2635
3405
3803
3793
3799
3807
580
660
0
0
0
0
2038
2133
2334
2069
2101
2735
3282
3791
3793
3789
1319
608
768
0
0
0
240
2129
2104
2189
2021
2128
3263
3727
3791
3793
3795
696
646
186
0
0
0
1643
2142
2195
2160
2022
2626
3413
3799
3797
3795
3807
578
677
0
0
0
0
2046
2127
2255
2063
2047
2795
3227
3791
3775
3793
1266
603
728
0
0
0
216
2131
2118
2197
2019
2413
3227
3663
3791
3791
3799
678
628
76
0
0
0
1686
2133
2262
2203
1985
2622
3319
3795
3793
3791
3399
585
677
0
0
0
0
2073
2137
2265
2074
2003
2831
3295
3799
3793
3775
1201
612
770
0
0
0
346
2144
2118
2158
2031
2413
3303
3795
3787
3795
3791
662
619
0
0
0
0
1740
2145
2207
2187
2000
2559
3327
3795
3791
3787
3303
582
690
0
0
0
0
2076
2153
2320
2106
2121
2895
3343
3803
3791
3799
1164
604
768
0
0
0
400
2138
2125
2167
2015
2245
3217
3583
3783
3783
3807
685
660
64
0
0
0
1753
2171
2305
2243
1969
2637
3279
3799
3791
3783
3221
602
688
0
0
0
0
2091
2138
2338
2131
1734
1080
661
0
3799
3791
2096
1585
1651
0
0
0
976
2754
2655
2629
2451
2693
3643
3807
3791
3799
3797
960
912
224
0
0
0
1968
2319
2383
2435
2139
2747
3343
3799
3787
3783
3089
673
762
0
0
0
0
2130
2181
2423
2128
2195
2827
3255
3807
3795
3787
1120
646
724
0
0
0
720
2171
2133
2143
2025
1556
694
441
3583
3791
3807
1470
1402
688
0
0
0
2330
2606
2667
2587
2346
2903
3455
3799
3787
3783
3057
834
832
0
0
0
0
2222
2210
2482
2213
2193
2859
3159
3711
3791
3782
1155
712
672
0
0
0
951
2189
2150
2224
2047
2333
3117
3323
3795
3791
3807
726
720
114
0
0
0
1917
2213
2223
2256
2045
2479
2939
3699
3795
3797
2895
706
816
0
0
0
0
2192
2098
2315
2093
2091
2247
2623
3803
3791
3819
1233
808
902
0
0
0
1243
2213
2175
2181
2071
2171
2767
2837
3793
3790
3803
896
844
850
0
0
0
1995
2194
2253
2198
2038
2243
2609
3307
3799
3815
2831
816
896
0
0
0
0
2191
2193
2320
2091
2077
2245
2423
3791
3787
3791
1296
876
960
0
0
0
1296
2255
2197
2171
2096
2157
2691
2647
3799
3791
3807
924
839
838
0
0
0
2047
2235
2242
2182
2071
2197
2555
3133
3795
3799
2819
864
946
116
0
0
0
2225
2210
2241
2123
2090
2227
2390
3791
3793
3791
1301
901
994
0
0
0
1350
2263
2205
2174
2095
2122
2587
2545
3791
3795
3791
956
944
832
0
0
0
2078
2251
2225
2179
2097
2160
2331
2871
3787
3760
2895
934
1000
292
0
0
0
2253
2242
2256
2137
2101
2183
2173
3551
3794
3799
1351
964
1049
0
0
0
1408
2289
2239
2177
2123
2127
2429
2230
3795
3779
3807
1050
1016
1088
0
0
0
2127
2273
2239
2183
2125
2097
2181
2544
3795
3783
2943
1018
1088
496
0
0
0
2298
2288
2289
2174
2111
2159
2047
3291
3795
3787
1452
1049
1124
0
0
0
1413
2307
2261
2193
2149
2112
2306
1871
3695
3795
3935
1206
1168
1312
0
0
0
2185
2354
2320
2257
2171
2160
2102
2527
3787
3791
2967
1078
1135
1152
0
0
0
2311
2295
2273
2189
2127
2160
2045
3251
3793
3771
1443
1052
1142
0
0
0
1308
2303
2271
2211
2147
2107
2375
2100
3799
3795
3807
1104
1083
1225
0
0
0
2113
2299
2263
2193
2119
2074
2079
2514
3783
3791
2800
1040
1104
686
0
0
0
2305
2291
2263
2167
2123
2170
2047
3271
3791
3795
1409
1065
1136
0
0
0
1360
2311
2247
2214
2130
2096
2199
2107
3799
3799
3807
1110
1092
1136
0
0
0
2134
2290
2267
2195
2125
2090
2077
2523
3783
3791
2731
1056
1120
1036
0
0
0
2286
2277
2239
2165
2102
2115
2022
3243
3859
3791
1397
1056
1136
0
0
0
1434
2315
2251
2191
2150
2160
2161
2119
3795
3794
3807
1100
1074
1281
0
0
0
2139
2281
2226
2179
2105
2070
2069
2475
3789
3791
2645
1040
1108
1045
0
0
0
2279
2259
2223
2155
2101
2096
2031
3263
3791
3787
1383
1058
1136
256
0
0
1487
2288
2224
2197
2125
2087
2243
2079
3791
3793
3807
1078
1078
1232
0
0
0
2135
2270
2255
2167
2111
2067
2071
2481
3795
3787
2581
1050
1109
1244
0
0
0
2271
2255
2209
2146
2106
2119
2019
3327
3790
3781
1354
1064
1141
0
0
0
1535
2292
2242
2195
2135
2091
2147
2091
3797
3787
3807
1098
1089
1232
0
0
0
2163
2286
2243
2171
2113
2086
2075
2533
3799
3793
2471
1051
1109
1050
0
0
0
2277
2247
2225
2151
2101
2145
2022
3313
3799
3783
1328
1056
1137
0
0
0
1579
2271
2224
2204
2123
2078
2167
2115
3789
3793
3803
1066
1080
1247
0
0
0
2131
2256
2198
2151
2106
2064
2032
2503
3793
3787
2384
1040
1100
1521
0
0
0
2237
2185
2187
2117
2083
2099
1984
3327
3790
3795
1317
1015
1132
875
0
0
1600
2223
2171
2143
2071
2032
2157
2035
3787
3795
3799
1050
1064
1248
0
0
0
2103
2206
2161
2115
2071
2023
2007
2502
3793
3791
2293
1028
1089
1623
0
0
0
2213
2199
2160
2106
2038
2096
1983
3327
3795
3799
1280
1050
1133
0
0
0
1673
2275
2224
2167
2107
2071
2091
2119
3807
3783
3799
1072
1083
1238
0
0
0
2126
2239
2159
2135
2087
2038
2026
2559
3795
3791
2222
1040
1102
1166
0
0
70
2253
2224
2193
2131
2093
2100
2007
3439
3791
3793
1280
1054
1136
0
0
0
1712
2266
2218
2185
2126
2077
2097
2167
3783
3791
3807
1068
1088
1266
0
0
0
2123
2215
2191
2115
2067
2031
2005
2531
3791
3791
2099
1017
1097
1669
0
0
112
2221
2199
2167
2096
2055
2135
1983
3475
3793
3794
1245
1054
1128
810
0
0
1696
2177
2151
2121
2063
2027
2046
2161
3791
3783
3815
1031
1050
1296
0
0
0
2092
2175
2146
2084
2035
2001
1982
2559
3803
3783
2030
1012
1092
1408
0
0
214
2229
2205
2161
2096
2053
2107
1985
3527
3795
3791
1232
1056
1136
348
0
0
1744
2225
2190
2143
2079
2033
2151
2151
3797
3791
3803
1040
1072
1264
0
0
0
2143
2217
2189
2115
2064
2028
2006
2603
3793
3795
1991
1029
1110
1456
0
0
296
2223
2203
2160
2095
2063
2096
1981
3583
3799
3794
1223
1059
1136
371
0
0
1775
2219
2173
2146
2085
2042
2059
2197
3743
3799
3807
1056
1078
1350
0
0
0
2113
2175
2135
2089
2035
2005
1988
2530
3803
3783
1924
1033
1107
1354
0
0
368
2215
2193
2160
2099
2059
2147
1984
3783
3791
3791
1185
1055
1136
0
0
0
1842
2233
2173
2128
2077
2041
2123
2256
3793
3791
3803
1022
1075
1264
0
0
0
2203
2238
2191
2147
2091
2055
2019
2775
3783
3783
1801
1043
1113
1933
0
0
490
2188
2154
2112
2067
2032
2107
1958
3807
3787
3791
1154
1021
1132
0
0
0
1845
2215
2164
2128
2073
2037
2109
2293
3799
3791
3799
1020
1092
1218
0
0
0
2150
2130
2158
2106
2074
2030
2000
2735
3791
3791
1739
1022
1114
1232
0
0
588
2227
2194
2147
2109
2063
2132
1987
3795
3794
3795
1152
1064
1136
832
0
0
1824
2167
2122
2083
2035
2005
2011
2192
3791
3791
3807
1018
1072
1351
0
0
0
2111
2160
2119
2073
2032
2000
1968
2709
3795
3791
1695
1014
1104
1222
0
0
629
2231
2195
2139
2101
2059
2109
1982
3793
3791
3783
1140
1070
1152
0
0
0
1911
2226
2167
2123
2083
2032
2037
2211
3795
3795
3807
1040
1097
1294
0
0
0
2191
2213
2160
2115
2081
2035
2000
2783
3789
3803
1664
1044
1136
1599
0
0
784
2224
2191
2139
2094
2047
2112
1983
3789
3783
3783
1136
1070
1137
0
0
0
1935
2222
2179
2128
2087
2047
2035
2165
3799
3803
3807
1050
1104
1326
0
0
0
2214
2233
2177
2129
2079
2057
2021
2751
3791
3793
1636
1056
1136
1574
0
0
807
2223
2189
2127
2099
2031
2112
1988
3791
3783
3783
1139
1078
1154
117
0
0
1919
2211
2163
2101
2070
2030
2021
2201
3799
3795
3803
1043
1096
1389
0
0
0
2131
2175
2124
2064
2038
2003
1974
2691
3787
3803
1584
1038
1115
1520
0
0
930
2206
2167
2113
2082
2033
2143
1979
3799
3787
3793
1056
1072
1142
0
0
0
1968
2234
2181
2127
2083
2038
2135
2251
3803
3791
3403
1031
1104
1347
0
0
0
2166
2203
2133
2096
2057
2023
2064
2795
3795
3793
1578
1040
1121
1107
0
0
992
2245
2215
2039
2111
2064
2174
2058
3791
3783
3795
1116
1044
1165
0
0
0
2023
2267
2234
2156
2115
2071
2047
2151
3794
3791
3311
1077
1136
1446
0
0
0
2147
2179
2132
2083
2044
2003
1971
2832
3799
3799
1522
1031
1113
1102
0
0
1058
2227
2195
2141
2098
2064
2112
1989
3791
3787
3799
1121
1082
1157
272
0
0
1939
2176
2138
2083
2055
1999
2009
2282
3797
3791
3199
1034
1080
1456
0
0
0
2186
2207
2147
2101
2066
2047
1999
2837
3793
3799
1502
1058
1133
1514
0
0
1126
2213
2175
2133
2079
2032
2111
2006
3793
3787
3807
1117
1072
1171
0
0
0
2002
2219
2162
2115
2071
2031
2030
2231
3795
3781
3103
1052
1110
1469
0
0
0
2131
2143
2103
2057
2021
2027
1963
2879
3795
3799
1455
1018
1104
1591
0
0
1104
2183
2145
2106
2067
2021
2094
1984
3795
3791
3799
1101
1072
1158
0
0
0
1990
2303
2137
2110
2043
2019
2011
2303
3711
3791
2931
1031
1092
1488
0
0
0
2192
2205
2162
2103
2064
2055
1993
2951
3799
3795
1447
1060
1130
1575
0
0
1241
2206
2167
2109
2080
2032
2064
1995
3795
3783
3799
1088
1073
1176
0
0
0
2034
2221
2175
2128
2047
2031
2016
2303
3783
3791
2789
1048
1105
1498
0
0
0
2182
2186
2190
2091
2034
2043
1978
2879
3799
3795
1450
1059
1136
1357
0
0
1246
2223
2158
2151
2079
2037
2110
2000
3807
3791
3797
1093
1072
1171
0
0
0
1995
2185
2169
2095
2042
2002
1989
2227
3795
3791
2843
1031
1098
1557
0
0
0
2224
2209
2199
2111
2047
2091
1991
2931
3795
3795
1421
1056
1147
2043
0
0
1298
2176
2151
2131
2061
2015
2030
1985
3791
3783
3807
1082
1072
1170
0
0
0
2032
2203
2193
2121
2064
2015
1994
2181
3795
3789
2747
1050
1107
1642
0
0
0
2143
2147
2126
2064
2020
2043
1959
2951
3799
3792
1373
1044
1126
922
0
0
1396
2219
2198
2151
2071
2045
2064
2017
3791
3783
3813
1098
1082
1172
0
0
0
2117
2271
2246
2177
2143
2080
2035
2307
3791
3791
2606
1072
1132
1658
0
0
0
2205
2193
2189
2096
2064
2095
1983
2979
3795
3791
1379
1069
1142
1973
0
0
1392
2186
2135
2114
2047
2103
2027
1984
3793
3793
3815
1083
1072
1222
170
0
0
1973
2133
2128
2062
2000
1969
1957
2194
3791
3795
2494
1013
1082
1696
0
0
0
2165
2143
2137
2062
2019
2047
1961
3055
3789
3791
1332
1040
1120
738
0
0
1484
2225
2183
2177
2091
2039
2037
2032
3793
3797
3807
1088
1084
1198
0
0
0
2092
2223
2178
2127
2077
2035
2010
2305
3795
3787
2475
1053
1120
1629
0
0
0
2193
2183
2162
2095
2042
2103
1930
3127
3791
3795
1322
1057
1138
1769
0
0
1472
2175
2144
2121
2047
2017
1991
1998
3791
3791
3807
1072
1078
1189
0
0
0
2063
2178
2171
2069
2033
2006
1986
2293
3799
3799
2343
1030
1140
1634
0
0
0
2210
2186
2173
2095
2055
2063
1978
3163
3793
3787
1241
1072
1133
796
0
0
1568